200
0;0;0;0;0;0;0;0;0;0;0;0;0;0;0;0;0;0;0;0;0;0;0;0;0;0;0;0;0;0;0;0;0;0;0;0;0;0;0;0;0;0;0;0;0;0;0;0;0;0;0;0;0;0;0;0;0;0;0;0;0;0;0;0;0;25.281;175.28;325.28;475.28;625.28;775.28;925.28;1075.3;1225.3;1249.7;1099.7;949.72;799.72;649.72;499.72;349.72;199.72;49.719;-100.28;-124.72;0;0;0;0;0;0;0;0;0;0;0;0;0;0;0;164.34;229.06;276.39;314.27;345.83;372.68;395.77;415.74;433.01;447.9;460.64;471.4;480.32;487.5;493.01;496.9;499.23;500;499.23;496.9;493.01;487.5;480.32;471.4;460.64;447.9;433.01;415.74;395.77;372.68;345.83;314.27;276.39;229.06;164.34;0;0;0;0;0;0;0;0;0;0;0;0;0;0;0;0;0;0;0;0;0;0;0;0;0;0;0;0;0;0;0;0;0;0;0;0;0;0;0;0;0;0;0;0;0;0;0;0;0;0;0;0;0;0;0;0;0;0;0;0;0;0;0;0;0;50.562;200.56;350.56;500.56;650.56;800.56;950.56;1100.6;1250.6;1224.4;1074.4;924.44;774.44;624.44;474.44;324.44;174.44;24.438;-125.56;-99.438;0;0;0;0;0;0;0;0;0;0;0;0;0;0;0;164.34;229.06;276.39;314.27;345.83;372.68;395.77;415.74;433.01;447.9;460.64;471.4;480.32;487.5;493.01;496.9;499.23;500;499.23;496.9;493.01;487.5;480.32;471.4;460.64;447.9;433.01;415.74;395.77;372.68;345.83;314.27;276.39;229.06;164.34;0;0;0;0;0;0;0;0;0;0;0;0;0;0;0;0;0;0;0;0;0;0;0;0;0;0;0;0;0;0;0;0;0;0;0;0;0;0;0;0;0;0;0;0;0;0;0;0;0;0;0;0;0;0;0;0;0;0;0;0;0;0;0;0;0;75.843;225.84;375.84;525.84;675.84;825.84;975.84;1125.8;1275.8;1199.2;1049.2;899.16;749.16;599.16;449.16;299.16;149.16;-0.8427;-150.84;-74.157;0;0;0;0;0;0;0;0;0;0;0;0;0;0;0;164.34;229.06;276.39;314.27;345.83;372.68;395.77;415.74;433.01;447.9;460.64;471.4;480.32;487.5;493.01;496.9;499.23;500;499.23;496.9;493.01;487.5;480.32;471.4;460.64;447.9;433.01;415.74;395.77;372.68;345.83;314.27;276.39;229.06;164.34;0;0;0;0;0;0;0;0;0;0;0;0;0;0;0;0;0;0;0;0;0;0;0;0;0;0;0;0;0;0;0;0;0;0;0;0;0;0;0;0;0;0;0;0;0;0;0;0;0;0;0;0;0;0;0;0;0;0;0;0;0;0;0;0;0;101.12;251.12;401.12;551.12;701.12;851.12;1001.1;1151.1;1301.1;1173.9;1023.9;873.88;723.88;573.88;423.88;273.88;123.88;-26.124;-176.12;-48.876;0;0;0;0;0;0;0;0;0;0;0;0;0;0;0;164.34;229.06;276.39;314.27;345.83;372.68;395.77;415.74;433.01;447.9;460.64;471.4;480.32;487.5;493.01;496.9;499.23;500;499.23;496.9;493.01;487.5;480.32;471.4;460.64;447.9;433.01;415.74;395.77;372.68;345.83;314.27;276.39;229.06;164.34;0;0;0;0;0;0;0;0;0;0;0;0;0;0;0;0;0;0;0;0;0;0;0;0;0;0;0;0;0;0;0;0;0;0;0;0;0;0;0;0;0;0;0;0;0;0;0;0;0;0;0;0;0;0;0;0;0;0;0;0;0;0;0;0;0;126.4;276.4;426.4;576.4;726.4;876.4;1026.4;1176.4;1298.6;1148.6;998.6;848.6;698.6;548.6;398.6;248.6;98.596;-51.404;-173.6;-23.596;0;0;0;0;0;0;0;0;0;0;0;0;0;0;0;164.34;229.06;276.39;314.27;345.83;372.68;395.77;415.74;433.01;447.9;460.64;471.4;480.32;487.5;493.01;496.9;499.23;500;499.23;496.9;493.01;487.5;480.32;471.4;460.64;447.9;433.01;415.74;395.77;372.68;345.83;314.27;276.39;229.06;164.34;0;0;0;0;0;0;0;0;0;0;0;0;0;0;0;0;0;0;0;0;0;0;0;0;0;0;0;0;0;0;0;0;0;0;0;0;0;0;0;0;0;0;0;0;0;0;0;0;0;0;0;0;0;0;0;0;0;0;0;0;0;0;0;0;1.6854;151.69;301.69;451.69;601.69;751.69;901.69;1051.7;1201.7;1273.3;1123.3;973.31;823.31;673.31;523.31;373.31;223.31;73.315;-76.685;-148.31;0;0;0;0;0;0;0;0;0;0;0;0;0;0;0;164.34;229.06;276.39;314.27;345.83;372.68;395.77;415.74;433.01;447.9;460.64;471.4;480.32;487.5;493.01;496.9;499.23;500;499.23;496.9;493.01;487.5;480.32;471.4;460.64;447.9;433.01;415.74;395.77;372.68;345.83;314.27;276.39;229.06;164.34;0;0;0;0;0;0;0;0;0;0;0;0;0;0;0;0;0;0;0;0;0;0;0;0;0;0;0;0;0;0;0;0;0;0;0;0;0;0;0;0;0;0;0;0;0;0;0;0;0;0;0;0;0;0;0;0;0;0;0;0;0;0;0;0;0;26.966;176.97;326.97;476.97;626.97;776.97;926.97;1077;1227;1248;1098;948.03;798.03;648.03;498.03;348.03;198.03;48.034;-101.97;-123.03;0;0;0;0;0;0;0;0;0;0;0;0;0;0;0;164.34;229.06;276.39;314.27;345.83;372.68;395.77;415.74;433.01;447.9;460.64;471.4;480.32;487.5;493.01;496.9;499.23;500;499.23;496.9;493.01;487.5;480.32;471.4;460.64;447.9;433.01;415.74;395.77;372.68;345.83;314.27;276.39;229.06;164.34;0;0;0;0;0;0;0;0;0;0;0;0;0;0;0;0;0;0;0;0;0;0;0;0;0;0;0;0;0;0;0;0;0;0;0;0;0;0;0;0;0;0;0;0;0;0;0;0;0;0;0;0;0;0;0;0;0;0;0;0;0;0;0;0;0;52.247;202.25;352.25;502.25;652.25;802.25;952.25;1102.2;1252.2;1222.8;1072.8;922.75;772.75;622.75;472.75;322.75;172.75;22.753;-127.25;-97.753;0;0;0;0;0;0;0;0;0;0;0;0;0;0;0;164.34;229.06;276.39;314.27;345.83;372.68;395.77;415.74;433.01;447.9;460.64;471.4;480.32;487.5;493.01;496.9;499.23;500;499.23;496.9;493.01;487.5;480.32;471.4;460.64;447.9;433.01;415.74;395.77;372.68;345.83;314.27;276.39;229.06;164.34;0;0;0;0;0;0;0;0;0;0;0;0;0;0;0;0;0;0;0;0;0;0;0;0;0;0;0;0;0;0;0;0;0;0;0;0;0;0;0;0;0;0;0;0;0;0;0;0;0;0;0;0;0;0;0;0;0;0;0;0;0;0;0;0;0;77.528;227.53;377.53;527.53;677.53;827.53;977.53;1127.5;1277.5;1197.5;1047.5;897.47;747.47;597.47;447.47;297.47;147.47;-2.5281;-152.53;-72.472;0;0;0;0;0;0;0;0;0;0;0;0;0;0;0;164.34;229.06;276.39;314.27;345.83;372.68;395.77;415.74;433.01;447.9;460.64;471.4;480.32;487.5;493.01;496.9;499.23;500;499.23;496.9;493.01;487.5;480.32;471.4;460.64;447.9;433.01;415.74;395.77;372.68;345.83;314.27;276.39;229.06;164.34;0;0;0;0;0;0;0;0;0;0;0;0;0;0;0;0;0;0;0;0;0;0;0;0;0;0;0;0;0;0;0;0;0;0;0;0;0;0;0;0;0;0;0;0;0;0;0;0;0;0;0;0;0;0;0;0;0;0;0;0;0;0;0;0;0;102.81;252.81;402.81;552.81;702.81;852.81;1002.8;1152.8;1302.8;1172.2;1022.2;872.19;722.19;572.19;422.19;272.19;122.19;-27.809;-177.81;-47.191;0;0;0;0;0;0;0;0;0;0;0;0;0;0;0;164.34;229.06;276.39;314.27;345.83;372.68;395.77;415.74;433.01;447.9;460.64;471.4;480.32;487.5;493.01;496.9;499.23;500;499.23;496.9;493.01;487.5;480.32;471.4;460.64;447.9;433.01;415.74;395.77;372.68;345.83;314.27;276.39;229.06;164.34;0;0;0;0;0;0;0;0;0;0;0;0;0;0;0;0;0;0;0;0;0;0;0;0;0;0;0;0;0;0;0;0;0;0;0;0;0;0;0;0;0;0;0;0;0;0;0;0;0;0;0;0;0;0;0;0;0;0;0;0;0;0;0;0;0;128.09;278.09;428.09;578.09;728.09;878.09;1028.1;1178.1;1296.9;1146.9;996.91;846.91;696.91;546.91;396.91;246.91;96.91;-53.09;-171.91;-21.91;0;0;0;0;0;0;0;0;0;0;0;0;0;0;0;164.34;229.06;276.39;314.27;345.83;372.68;395.77;415.74;433.01;447.9;460.64;471.4;480.32;487.5;493.01;496.9;499.23;500;499.23;496.9;493.01;487.5;480.32;471.4;460.64;447.9;433.01;415.74;395.77;372.68;345.83;314.27;276.39;229.06;164.34;0;0;0;0;0;0;0;0;0;0;0;0;0;0;0;0;0;0;0;0;0;0;0;0;0;0;0;0;0;0;0;0;0;0;0;0;0;0;0;0;0;0;0;0;0;0;0;0;0;0;0;0;0;0;0;0;0;0;0;0;0;0;0;0;3.3708;153.37;303.37;453.37;603.37;753.37;903.37;1053.4;1203.4;1271.6;1121.6;971.63;821.63;671.63;521.63;371.63;221.63;71.629;-78.371;-146.63;0;0;0;0;0;0;0;0;0;0;0;0;0;0;0;164.34;229.06;276.39;314.27;345.83;372.68;395.77;415.74;433.01;447.9;460.64;471.4;480.32;487.5;493.01;496.9;499.23;500;499.23;496.9;493.01;487.5;480.32;471.4;460.64;447.9;433.01;415.74;395.77;372.68;345.83;314.27;276.39;229.06;164.34;0;0;0;0;0;0;0;0;0;0;0;0;0;0;0;0;0;0;0;0;0;0;0;0;0;0;0;0;0;0;0;0;0;0;0;0;0;0;0;0;0;0;0;0;0;0;0;0;0;0;0;0;0;0;0;0;0;0;0;0;0;0;0;0;0;28.652;178.65;328.65;478.65;628.65;778.65;928.65;1078.7;1228.7;1246.3;1096.3;946.35;796.35;646.35;496.35;346.35;196.35;46.348;-103.65;-121.35;0;0;0;0;0;0;0;0;0;0;0;0;0;0;0;164.34;229.06;276.39;314.27;345.83;372.68;395.77;415.74;433.01;447.9;460.64;471.4;480.32;487.5;493.01;496.9;499.23;500;499.23;496.9;493.01;487.5;480.32;471.4;460.64;447.9;433.01;415.74;395.77;372.68;345.83;314.27;276.39;229.06;164.34;0;0;0;0;0;0;0;0;0;0;0;0;0;0;0;0;0;0;0;0;0;0;0;0;0;0;0;0;0;0;0;0;0;0;0;0;0;0;0;0;0;0;0;0;0;0;0;0;0;0;0;0;0;0;0;0;0;0;0;0;0;0;0;0;0;53.933;203.93;353.93;503.93;653.93;803.93;953.93;1103.9;1253.9;1221.1;1071.1;921.07;771.07;621.07;471.07;321.07;171.07;21.067;-128.93;-96.067;0;0;0;0;0;0;0;0;0;0;0;0;0;0;0;164.34;229.06;276.39;314.27;345.83;372.68;395.77;415.74;433.01;447.9;460.64;471.4;480.32;487.5;493.01;496.9;499.23;500;499.23;496.9;493.01;487.5;480.32;471.4;460.64;447.9;433.01;415.74;395.77;372.68;345.83;314.27;276.39;229.06;164.34;0;0;0;0;0;0;0;0;0;0;0;0;0;0;0;0;0;0;0;0;0;0;0;0;0;0;0;0;0;0;0;0;0;0;0;0;0;0;0;0;0;0;0;0;0;0;0;0;0;0;0;0;0;0;0;0;0;0;0;0;0;0;0;0;0;79.213;229.21;379.21;529.21;679.21;829.21;979.21;1129.2;1279.2;1195.8;1045.8;895.79;745.79;595.79;445.79;295.79;145.79;-4.2135;-154.21;-70.787;0;0;0;0;0;0;0;0;0;0;0;0;0;0;0;164.34;229.06;276.39;314.27;345.83;372.68;395.77;415.74;433.01;447.9;460.64;471.4;480.32;487.5;493.01;496.9;499.23;500;499.23;496.9;493.01;487.5;480.32;471.4;460.64;447.9;433.01;415.74;395.77;372.68;345.83;314.27;276.39;229.06;164.34;0;0;0;0;0;0;0;0;0;0;0;0;0;0;0;0;0;0;0;0;0;0;0;0;0;0;0;0;0;0;0;0;0;0;0;0;0;0;0;0;0;0;0;0;0;0;0;0;0;0;0;0;0;0;0;0;0;0;0;0;0;0;0;0;0;104.49;254.49;404.49;554.49;704.49;854.49;1004.5;1154.5;1304.5;1170.5;1020.5;870.51;720.51;570.51;420.51;270.51;120.51;-29.494;-179.49;-45.506;0;0;0;0;0;0;0;0;0;0;0;0;0;0;0;164.34;229.06;276.39;314.27;345.83;372.68;395.77;415.74;433.01;447.9;460.64;471.4;480.32;487.5;493.01;496.9;499.23;500;499.23;496.9;493.01;487.5;480.32;471.4;460.64;447.9;433.01;415.74;395.77;372.68;345.83;314.27;276.39;229.06;164.34;0;0;0;0;0;0;0;0;0;0;0;0;0;0;0;0;0;0;0;0;0;0;0;0;0;0;0;0;0;0;0;0;0;0;0;0;0;0;0;0;0;0;0;0;0;0;0;0;0;0;0;0;0;0;0;0;0;0;0;0;0;0;0;0;0;129.78;279.78;429.78;579.78;729.78;879.78;1029.8;1179.8;1295.2;1145.2;995.22;845.22;695.22;545.22;395.22;245.22;95.225;-54.775;-170.22;-20.225;0;0;0;0;0;0;0;0;0;0;0;0;0;0;0;164.34;229.06;276.39;314.27;345.83;372.68;395.77;415.74;433.01;447.9;460.64;471.4;480.32;487.5;493.01;496.9;499.23;500;499.23;496.9;493.01;487.5;480.32;471.4;460.64;447.9;433.01;415.74;395.77;372.68;345.83;314.27;276.39;229.06;164.34;0;0;0;0;0;0;0;0;0;0;0;0;0;0;0;0;0;0;0;0;0;0;0;0;0;0;0;0;0;0;0;0;0;0;0;0;0;0;0;0;0;0;0;0;0;0;0;0;0;0;0;0;0;0;0;0;0;0;0;0;0;0;0;0;5.0562;155.06;305.06;455.06;605.06;755.06;905.06;1055.1;1205.1;1269.9;1119.9;969.94;819.94;669.94;519.94;369.94;219.94;69.944;-80.056;-144.94;0;0;0;0;0;0;0;0;0;0;0;0;0;0;0;164.34;229.06;276.39;314.27;345.83;372.68;395.77;415.74;433.01;447.9;460.64;471.4;480.32;487.5;493.01;496.9;499.23;500;499.23;496.9;493.01;487.5;480.32;471.4;460.64;447.9;433.01;415.74;395.77;372.68;345.83;314.27;276.39;229.06;164.34;0;0;0;0;0;0;0;0;0;0;0;0;0;0;0;0;0;0;0;0;0;0;0;0;0;0;0;0;0;0;0;0;0;0;0;0;0;0;0;0;0;0;0;0;0;0;0;0;0;0;0;0;0;0;0;0;0;0;0;0;0;0;0;0;0;30.337;180.34;330.34;480.34;630.34;780.34;930.34;1080.3;1230.3;1244.7;1094.7;944.66;794.66;644.66;494.66;344.66;194.66;44.663;-105.34;-119.66;0;0;0;0;0;0;0;0;0;0;0;0;0;0;0;164.34;229.06;276.39;314.27;345.83;372.68;395.77;415.74;433.01;447.9;460.64;471.4;480.32;487.5;493.01;496.9;499.23;500;499.23;496.9;493.01;487.5;480.32;471.4;460.64;447.9;433.01;415.74;395.77;372.68;345.83;314.27;276.39;229.06;164.34;0;0;0;0;0;0;0;0;0;0;0;0;0;0;0;0;0;0;0;0;0;0;0;0;0;0;0;0;0;0;0;0;0;0;0;0;0;0;0;0;0;0;0;0;0;0;0;0;0;0;0;0;0;0;0;0;0;0;0;0;0;0;0;0;0;55.618;205.62;355.62;505.62;655.62;805.62;955.62;1105.6;1255.6;1219.4;1069.4;919.38;769.38;619.38;469.38;319.38;169.38;19.382;-130.62;-94.382;0;0;0;0;0;0;0;0;0;0;0;0;0;0;0;164.34;229.06;276.39;314.27;345.83;372.68;395.77;415.74;433.01;447.9;460.64;471.4;480.32;487.5;493.01;496.9;499.23;500;499.23;496.9;493.01;487.5;480.32;471.4;460.64;447.9;433.01;415.74;395.77;372.68;345.83;314.27;276.39;229.06;164.34;0;0;0;0;0;0;0;0;0;0;0;0;0;0;0;0;0;0;0;0;0;0;0;0;0;0;0;0;0;0;0;0;0;0;0;0;0;0;0;0;0;0;0;0;0;0;0;0;0;0;0;0;0;0;0;0;0;0;0;0;0;0;0;0;0;80.899;230.9;380.9;530.9;680.9;830.9;980.9;1130.9;1280.9;1194.1;1044.1;894.1;744.1;594.1;444.1;294.1;144.1;-5.8989;-155.9;-69.101;0;0;0;0;0;0;0;0;0;0;0;0;0;0;0;164.34;229.06;276.39;314.27;345.83;372.68;395.77;415.74;433.01;447.9;460.64;471.4;480.32;487.5;493.01;496.9;499.23;500;499.23;496.9;493.01;487.5;480.32;471.4;460.64;447.9;433.01;415.74;395.77;372.68;345.83;314.27;276.39;229.06;164.34;0;0;0;0;0;0;0;0;0;0;0;0;0;0;0;0;0;0;0;0;0;0;0;0;0;0;0;0;0;0;0;0;0;0;0;0;0;0;0;0;0;0;0;0;0;0;0;0;0;0;0;0;0;0;0;0;0;0;0;0;0;0;0;0;0;106.18;256.18;406.18;556.18;706.18;856.18;1006.2;1156.2;1306.2;1168.8;1018.8;868.82;718.82;568.82;418.82;268.82;118.82;-31.18;-181.18;-43.82;0;0;0;0;0;0;0;0;0;0;0;0;0;0;0;164.34;229.06;276.39;314.27;345.83;372.68;395.77;415.74;433.01;447.9;460.64;471.4;480.32;487.5;493.01;496.9;499.23;500;499.23;496.9;493.01;487.5;480.32;471.4;460.64;447.9;433.01;415.74;395.77;372.68;345.83;314.27;276.39;229.06;164.34;0;0;0;0;0;0;0;0;0;0;0;0;0;0;0;0;0;0;0;0;0;0;0;0;0;0;0;0;0;0;0;0;0;0;0;0;0;0;0;0;0;0;0;0;0;0;0;0;0;0;0;0;0;0;0;0;0;0;0;0;0;0;0;0;0;131.46;281.46;431.46;581.46;731.46;881.46;1031.5;1181.5;1293.5;1143.5;993.54;843.54;693.54;543.54;393.54;243.54;93.539;-56.461;-168.54;-18.539;0;0;0;0;0;0;0;0;0;0;0;0;0;0;0;164.34;229.06;276.39;314.27;345.83;372.68;395.77;415.74;433.01;447.9;460.64;471.4;480.32;487.5;493.01;496.9;499.23;500;499.23;496.9;493.01;487.5;480.32;471.4;460.64;447.9;433.01;415.74;395.77;372.68;345.83;314.27;276.39;229.06;164.34;0;0;0;0;0;0;0;0;0;0;0;0;0;0;0;0;0;0;0;0;0;0;0;0;0;0;0;0;0;0;0;0;0;0;0;0;0;0;0;0;0;0;0;0;0;0;0;0;0;0;0;0;0;0;0;0;0;0;0;0;0;0;0;0;6.7416;156.74;306.74;456.74;606.74;756.74;906.74;1056.7;1206.7;1268.3;1118.3;968.26;818.26;668.26;518.26;368.26;218.26;68.258;-81.742;-143.26;0;0;0;0;0;0;0;0;0;0;0;0;0;0;0;164.34;229.06;276.39;314.27;345.83;372.68;395.77;415.74;433.01;447.9;460.64;471.4;480.32;487.5;493.01;496.9;499.23;500;499.23;496.9;493.01;487.5;480.32;471.4;460.64;447.9;433.01;415.74;395.77;372.68;345.83;314.27;276.39;229.06;164.34;0;0;0;0;0;0;0;0;0;0;0;0;0;0;0;0;0;0;0;0;0;0;0;0;0;0;0;0;0;0;0;0;0;0;0;0;0;0;0;0;0;0;0;0;0;0;0;0;0;0;0;0;0;0;0;0;0;0;0;0;0;0;0;0;0;32.022;182.02;332.02;482.02;632.02;782.02;932.02;1082;1232;1243;1093;942.98;792.98;642.98;492.98;342.98;192.98;42.978;-107.02;-117.98;0;0;0;0;0;0;0;0;0;0;0;0;0;0;0;164.34;229.06;276.39;314.27;345.83;372.68;395.77;415.74;433.01;447.9;460.64;471.4;480.32;487.5;493.01;496.9;499.23;500;499.23;496.9;493.01;487.5;480.32;471.4;460.64;447.9;433.01;415.74;395.77;372.68;345.83;314.27;276.39;229.06;164.34;0;0;0;0;0;0;0;0;0;0;0;0;0;0;0;0;0;0;0;0;0;0;0;0;0;0;0;0;0;0;0;0;0;0;0;0;0;0;0;0;0;0;0;0;0;0;0;0;0;0;0;0;0;0;0;0;0;0;0;0;0;0;0;0;0;57.303;207.3;357.3;507.3;657.3;807.3;957.3;1107.3;1257.3;1217.7;1067.7;917.7;767.7;617.7;467.7;317.7;167.7;17.697;-132.3;-92.697;0;0;0;0;0;0;0;0;0;0;0;0;0;0;0;164.34;229.06;276.39;314.27;345.83;372.68;395.77;415.74;433.01;447.9;460.64;471.4;480.32;487.5;493.01;496.9;499.23;500;499.23;496.9;493.01;487.5;480.32;471.4;460.64;447.9;433.01;415.74;395.77;372.68;345.83;314.27;276.39;229.06;164.34;0;0;0;0;0;0;0;0;0;0;0;0;0;0;0;0;0;0;0;0;0;0;0;0;0;0;0;0;0;0;0;0;0;0;0;0;0;0;0;0;0;0;0;0;0;0;0;0;0;0;0;0;0;0;0;0;0;0;0;0;0;0;0;0;0;82.584;232.58;382.58;532.58;682.58;832.58;982.58;1132.6;1282.6;1192.4;1042.4;892.42;742.42;592.42;442.42;292.42;142.42;-7.5843;-157.58;-67.416;0;0;0;0;0;0;0;0;0;0;0;0;0;0;0;164.34;229.06;276.39;314.27;345.83;372.68;395.77;415.74;433.01;447.9;460.64;471.4;480.32;487.5;493.01;496.9;499.23;500;499.23;496.9;493.01;487.5;480.32;471.4;460.64;447.9;433.01;415.74;395.77;372.68;345.83;314.27;276.39;229.06;164.34;0;0;0;0;0;0;0;0;0;0;0;0;0;0;0;0;0;0;0;0;0;0;0;0;0;0;0;0;0;0;0;0;0;0;0;0;0;0;0;0;0;0;0;0;0;0;0;0;0;0;0;0;0;0;0;0;0;0;0;0;0;0;0;0;0;107.87;257.87;407.87;557.87;707.87;857.87;1007.9;1157.9;1307.9;1167.1;1017.1;867.13;717.13;567.13;417.13;267.13;117.13;-32.865;-182.87;-42.135;0;0;0;0;0;0;0;0;0;0;0;0;0;0;0;164.34;229.06;276.39;314.27;345.83;372.68;395.77;415.74;433.01;447.9;460.64;471.4;480.32;487.5;493.01;496.9;499.23;500;499.23;496.9;493.01;487.5;480.32;471.4;460.64;447.9;433.01;415.74;395.77;372.68;345.83;314.27;276.39;229.06;164.34;0;0;0;0;0;0;0;0;0;0;0;0;0;0;0;0;0;0;0;0;0;0;0;0;0;0;0;0;0;0;0;0;0;0;0;0;0;0;0;0;0;0;0;0;0;0;0;0;0;0;0;0;0;0;0;0;0;0;0;0;0;0;0;0;0;133.15;283.15;433.15;583.15;733.15;883.15;1033.1;1183.1;1291.9;1141.9;991.85;841.85;691.85;541.85;391.85;241.85;91.854;-58.146;-166.85;-16.854;0;0;0;0;0;0;0;0;0;0;0;0;0;0;0;164.34;229.06;276.39;314.27;345.83;372.68;395.77;415.74;433.01;447.9;460.64;471.4;480.32;487.5;493.01;496.9;499.23;500;499.23;496.9;493.01;487.5;480.32;471.4;460.64;447.9;433.01;415.74;395.77;372.68;345.83;314.27;276.39;229.06;164.34;0;0;0;0;0;0;0;0;0;0;0;0;0;0;0;0;0;0;0;0;0;0;0;0;0;0;0;0;0;0;0;0;0;0;0;0;0;0;0;0;0;0;0;0;0;0;0;0;0;0;0;0;0;0;0;0;0;0;0;0;0;0;0;0;8.427;158.43;308.43;458.43;608.43;758.43;908.43;1058.4;1208.4;1266.6;1116.6;966.57;816.57;666.57;516.57;366.57;216.57;66.573;-83.427;-141.57;0;0;0;0;0;0;0;0;0;0;0;0;0;0;0;164.34;229.06;276.39;314.27;345.83;372.68;395.77;415.74;433.01;447.9;460.64;471.4;480.32;487.5;493.01;496.9;499.23;500;499.23;496.9;493.01;487.5;480.32;471.4;460.64;447.9;433.01;415.74;395.77;372.68;345.83;314.27;276.39;229.06;164.34;0;0;0;0;0;0;0;0;0;0;0;0;0;0;0;0;0;0;0;0;0;0;0;0;0;0;0;0;0;0;0;0;0;0;0;0;0;0;0;0;0;0;0;0;0;0;0;0;0;0;0;0;0;0;0;0;0;0;0;0;0;0;0;0;0;33.708;183.71;333.71;483.71;633.71;783.71;933.71;1083.7;1233.7;1241.3;1091.3;941.29;791.29;641.29;491.29;341.29;191.29;41.292;-108.71;-116.29;0;0;0;0;0;0;0;0;0;0;0;0;0;0;0;164.34;229.06;276.39;314.27;345.83;372.68;395.77;415.74;433.01;447.9;460.64;471.4;480.32;487.5;493.01;496.9;499.23;500;499.23;496.9;493.01;487.5;480.32;471.4;460.64;447.9;433.01;415.74;395.77;372.68;345.83;314.27;276.39;229.06;164.34;0;0;0;0;0;0;0;0;0;0;0;0;0;0;0;0;0;0;0;0;0;0;0;0;0;0;0;0;0;0;0;0;0;0;0;0;0;0;0;0;0;0;0;0;0;0;0;0;0;0;0;0;0;0;0;0;0;0;0;0;0;0;0;0;0;58.989;208.99;358.99;508.99;658.99;808.99;958.99;1109;1259;1216;1066;916.01;766.01;616.01;466.01;316.01;166.01;16.011;-133.99;-91.011;0;0;0;0;0;0;0;0;0;0;0;0;0;0;0;164.34;229.06;276.39;314.27;345.83;372.68;395.77;415.74;433.01;447.9;460.64;471.4;480.32;487.5;493.01;496.9;499.23;500;499.23;496.9;493.01;487.5;480.32;471.4;460.64;447.9;433.01;415.74;395.77;372.68;345.83;314.27;276.39;229.06;164.34;0;0;0;0;0;0;0;0;0;0;0;0;0;0;0;0;0;0;0;0;0;0;0;0;0;0;0;0;0;0;0;0;0;0;0;0;0;0;0;0;0;0;0;0;0;0;0;0;0;0;0;0;0;0;0;0;0;0;0;0;0;0;0;0;0;84.27;234.27;384.27;534.27;684.27;834.27;984.27;1134.3;1284.3;1190.7;1040.7;890.73;740.73;590.73;440.73;290.73;140.73;-9.2697;-159.27;-65.73;0;0;0;0;0;0;0;0;0;0;0;0;0;0;0;164.34;229.06;276.39;314.27;345.83;372.68;395.77;415.74;433.01;447.9;460.64;471.4;480.32;487.5;493.01;496.9;499.23;500;499.23;496.9;493.01;487.5;480.32;471.4;460.64;447.9;433.01;415.74;395.77;372.68;345.83;314.27;276.39;229.06;164.34;0;0;0;0;0;0;0;0;0;0;0;0;0;0;0;0;0;0;0;0;0;0;0;0;0;0;0;0;0;0;0;0;0;0;0;0;0;0;0;0;0;0;0;0;0;0;0;0;0;0;0;0;0;0;0;0;0;0;0;0;0;0;0;0;0;109.55;259.55;409.55;559.55;709.55;859.55;1009.6;1159.6;1309.6;1165.4;1015.4;865.45;715.45;565.45;415.45;265.45;115.45;-34.551;-184.55;-40.449;0;0;0;0;0;0;0;0;0;0;0;0;0;0;0;164.34;229.06;276.39;314.27;345.83;372.68;395.77;415.74;433.01;447.9;460.64;471.4;480.32;487.5;493.01;496.9;499.23;500;499.23;496.9;493.01;487.5;480.32;471.4;460.64;447.9;433.01;415.74;395.77;372.68;345.83;314.27;276.39;229.06;164.34;0;0;0;0;0;0;0;0;0;0;0;0;0;0;0;0;0;0;0;0;0;0;0;0;0;0;0;0;0;0;0;0;0;0;0;0;0;0;0;0;0;0;0;0;0;0;0;0;0;0;0;0;0;0;0;0;0;0;0;0;0;0;0;0;0;134.83;284.83;434.83;584.83;734.83;884.83;1034.8;1184.8;1290.2;1140.2;990.17;840.17;690.17;540.17;390.17;240.17;90.169;-59.831;-165.17;-15.169;0;0;0;0;0;0;0;0;0;0;0;0;0;0;0;164.34;229.06;276.39;314.27;345.83;372.68;395.77;415.74;433.01;447.9;460.64;471.4;480.32;487.5;493.01;496.9;499.23;500;499.23;496.9;493.01;487.5;480.32;471.4;460.64;447.9;433.01;415.74;395.77;372.68;345.83;314.27;276.39;229.06;164.34;0;0;0;0;0;0;0;0;0;0;0;0;0;0;0;0;0;0;0;0;0;0;0;0;0;0;0;0;0;0;0;0;0;0;0;0;0;0;0;0;0;0;0;0;0;0;0;0;0;0;0;0;0;0;0;0;0;0;0;0;0;0;0;0;10.112;160.11;310.11;460.11;610.11;760.11;910.11;1060.1;1210.1;1264.9;1114.9;964.89;814.89;664.89;514.89;364.89;214.89;64.888;-85.112;-139.89;0;0;0;0;0;0;0;0;0;0;0;0;0;0;0;164.34;229.06;276.39;314.27;345.83;372.68;395.77;415.74;433.01;447.9;460.64;471.4;480.32;487.5;493.01;496.9;499.23;500;499.23;496.9;493.01;487.5;480.32;471.4;460.64;447.9;433.01;415.74;395.77;372.68;345.83;314.27;276.39;229.06;164.34;0;0;0;0;0;0;0;0;0;0;0;0;0;0;0;0;0;0;0;0;0;0;0;0;0;0;0;0;0;0;0;0;0;0;0;0;0;0;0;0;0;0;0;0;0;0;0;0;0;0;0;0;0;0;0;0;0;0;0;0;0;0;0;0;0;35.393;185.39;335.39;485.39;635.39;785.39;935.39;1085.4;1235.4;1239.6;1089.6;939.61;789.61;639.61;489.61;339.61;189.61;39.607;-110.39;-114.61;0;0;0;0;0;0;0;0;0;0;0;0;0;0;0;164.34;229.06;276.39;314.27;345.83;372.68;395.77;415.74;433.01;447.9;460.64;471.4;480.32;487.5;493.01;496.9;499.23;500;499.23;496.9;493.01;487.5;480.32;471.4;460.64;447.9;433.01;415.74;395.77;372.68;345.83;314.27;276.39;229.06;164.34;0;0;0;0;0;0;0;0;0;0;0;0;0;0;0;0;0;0;0;0;0;0;0;0;0;0;0;0;0;0;0;0;0;0;0;0;0;0;0;0;0;0;0;0;0;0;0;0;0;0;0;0;0;0;0;0;0;0;0;0;0;0;0;0;0;60.674;210.67;360.67;510.67;660.67;810.67;960.67;1110.7;1260.7;1214.3;1064.3;914.33;764.33;614.33;464.33;314.33;164.33;14.326;-135.67;-89.326;0;0;0;0;0;0;0;0;0;0;0;0;0;0;0;164.34;229.06;276.39;314.27;345.83;372.68;395.77;415.74;433.01;447.9;460.64;471.4;480.32;487.5;493.01;496.9;499.23;500;499.23;496.9;493.01;487.5;480.32;471.4;460.64;447.9;433.01;415.74;395.77;372.68;345.83;314.27;276.39;229.06;164.34;0;0;0;0;0;0;0;0;0;0;0;0;0;0;0;0;0;0;0;0;0;0;0;0;0;0;0;0;0;0;0;0;0;0;0;0;0;0;0;0;0;0;0;0;0;0;0;0;0;0;0;0;0;0;0;0;0;0;0;0;0;0;0;0;0;85.955;235.96;385.96;535.96;685.96;835.96;985.96;1136;1286;1189;1039;889.04;739.04;589.04;439.04;289.04;139.04;-10.955;-160.96;-64.045;0;0;0;0;0;0;0;0;0;0;0;0;0;0;0;164.34;229.06;276.39;314.27;345.83;372.68;395.77;415.74;433.01;447.9;460.64;471.4;480.32;487.5;493.01;496.9;499.23;500;499.23;496.9;493.01;487.5;480.32;471.4;460.64;447.9;433.01;415.74;395.77;372.68;345.83;314.27;276.39;229.06;164.34;0;0;0;0;0;0;0;0;0;0;0;0;0;0;0;0;0;0;0;0;0;0;0;0;0;0;0;0;0;0;0;0;0;0;0;0;0;0;0;0;0;0;0;0;0;0;0;0;0;0;0;0;0;0;0;0;0;0;0;0;0;0;0;0;0;111.24;261.24;411.24;561.24;711.24;861.24;1011.2;1161.2;1311.2;1163.8;1013.8;863.76;713.76;563.76;413.76;263.76;113.76;-36.236;-186.24;-38.764;0;0;0;0;0;0;0;0;0;0;0;0;0;0;0;164.34;229.06;276.39;314.27;345.83;372.68;395.77;415.74;433.01;447.9;460.64;471.4;480.32;487.5;493.01;496.9;499.23;500;499.23;496.9;493.01;487.5;480.32;471.4;460.64;447.9;433.01;415.74;395.77;372.68;345.83;314.27;276.39;229.06;164.34;0;0;0;0;0;0;0;0;0;0;0;0;0;0;0;0;0;0;0;0;0;0;0;0;0;0;0;0;0;0;0;0;0;0;0;0;0;0;0;0;0;0;0;0;0;0;0;0;0;0;0;0;0;0;0;0;0;0;0;0;0;0;0;0;0;136.52;286.52;436.52;586.52;736.52;886.52;1036.5;1186.5;1288.5;1138.5;988.48;838.48;688.48;538.48;388.48;238.48;88.483;-61.517;-163.48;-13.483;0;0;0;0;0;0;0;0;0;0;0;0;0;0;0;164.34;229.06;276.39;314.27;345.83;372.68;395.77;415.74;433.01;447.9;460.64;471.4;480.32;487.5;493.01;496.9;499.23;500;499.23;496.9;493.01;487.5;480.32;471.4;460.64;447.9;433.01;415.74;395.77;372.68;345.83;314.27;276.39;229.06;164.34;0;0;0;0;0;0;0;0;0;0;0;0;0;0;0;0;0;0;0;0;0;0;0;0;0;0;0;0;0;0;0;0;0;0;0;0;0;0;0;0;0;0;0;0;0;0;0;0;0;0;0;0;0;0;0;0;0;0;0;0;0;0;0;0;11.798;161.8;311.8;461.8;611.8;761.8;911.8;1061.8;1211.8;1263.2;1113.2;963.2;813.2;663.2;513.2;363.2;213.2;63.202;-86.798;-138.2;0;0;0;0;0;0;0;0;0;0;0;0;0;0;0;164.34;229.06;276.39;314.27;345.83;372.68;395.77;415.74;433.01;447.9;460.64;471.4;480.32;487.5;493.01;496.9;499.23;500;499.23;496.9;493.01;487.5;480.32;471.4;460.64;447.9;433.01;415.74;395.77;372.68;345.83;314.27;276.39;229.06;164.34;0;0;0;0;0;0;0;0;0;0;0;0;0;0;0;0;0;0;0;0;0;0;0;0;0;0;0;0;0;0;0;0;0;0;0;0;0;0;0;0;0;0;0;0;0;0;0;0;0;0;0;0;0;0;0;0;0;0;0;0;0;0;0;0;0;37.079;187.08;337.08;487.08;637.08;787.08;937.08;1087.1;1237.1;1237.9;1087.9;937.92;787.92;637.92;487.92;337.92;187.92;37.921;-112.08;-112.92;0;0;0;0;0;0;0;0;0;0;0;0;0;0;0;164.34;229.06;276.39;314.27;345.83;372.68;395.77;415.74;433.01;447.9;460.64;471.4;480.32;487.5;493.01;496.9;499.23;500;499.23;496.9;493.01;487.5;480.32;471.4;460.64;447.9;433.01;415.74;395.77;372.68;345.83;314.27;276.39;229.06;164.34;0;0;0;0;0;0;0;0;0;0;0;0;0;0;0;0;0;0;0;0;0;0;0;0;0;0;0;0;0;0;0;0;0;0;0;0;0;0;0;0;0;0;0;0;0;0;0;0;0;0;0;0;0;0;0;0;0;0;0;0;0;0;0;0;0;62.36;212.36;362.36;512.36;662.36;812.36;962.36;1112.4;1262.4;1212.6;1062.6;912.64;762.64;612.64;462.64;312.64;162.64;12.64;-137.36;-87.64;0;0;0;0;0;0;0;0;0;0;0;0;0;0;0;164.34;229.06;276.39;314.27;345.83;372.68;395.77;415.74;433.01;447.9;460.64;471.4;480.32;487.5;493.01;496.9;499.23;500;499.23;496.9;493.01;487.5;480.32;471.4;460.64;447.9;433.01;415.74;395.77;372.68;345.83;314.27;276.39;229.06;164.34;0;0;0;0;0;0;0;0;0;0;0;0;0;0;0;0;0;0;0;0;0;0;0;0;0;0;0;0;0;0;0;0;0;0;0;0;0;0;0;0;0;0;0;0;0;0;0;0;0;0;0;0;0;0;0;0;0;0;0;0;0;0;0;0;0;87.64;237.64;387.64;537.64;687.64;837.64;987.64;1137.6;1287.6;1187.4;1037.4;887.36;737.36;587.36;437.36;287.36;137.36;-12.64;-162.64;-62.36;0;0;0;0;0;0;0;0;0;0;0;0;0;0;0;164.34;229.06;276.39;314.27;345.83;372.68;395.77;415.74;433.01;447.9;460.64;471.4;480.32;487.5;493.01;496.9;499.23;500;499.23;496.9;493.01;487.5;480.32;471.4;460.64;447.9;433.01;415.74;395.77;372.68;345.83;314.27;276.39;229.06;164.34;0;0;0;0;0;0;0;0;0;0;0;0;0;0;0;0;0;0;0;0;0;0;0;0;0;0;0;0;0;0;0;0;0;0;0;0;0;0;0;0;0;0;0;0;0;0;0;0;0;0;0;0;0;0;0;0;0;0;0;0;0;0;0;0;0;112.92;262.92;412.92;562.92;712.92;862.92;1012.9;1162.9;1312.1;1162.1;1012.1;862.08;712.08;562.08;412.08;262.08;112.08;-37.921;-187.08;-37.079;0;0;0;0;0;0;0;0;0;0;0;0;0;0;0;164.34;229.06;276.39;314.27;345.83;372.68;395.77;415.74;433.01;447.9;460.64;471.4;480.32;487.5;493.01;496.9;499.23;500;499.23;496.9;493.01;487.5;480.32;471.4;460.64;447.9;433.01;415.74;395.77;372.68;345.83;314.27;276.39;229.06;164.34;0;0;0;0;0;0;0;0;0;0;0;0;0;0;0;0;0;0;0;0;0;0;0;0;0;0;0;0;0;0;0;0;0;0;0;0;0;0;0;0;0;0;0;0;0;0;0;0;0;0;0;0;0;0;0;0;0;0;0;0;0;0;0;0;0;138.2;288.2;438.2;588.2;738.2;888.2;1038.2;1188.2;1286.8;1136.8;986.8;836.8;686.8;536.8;386.8;236.8;86.798;-63.202;-161.8;-11.798;0;0;0;0;0;0;0;0;0;0;0;0;0;0;0;164.34;229.06;276.39;314.27;345.83;372.68;395.77;415.74;433.01;447.9;460.64;471.4;480.32;487.5;493.01;496.9;499.23;500;499.23;496.9;493.01;487.5;480.32;471.4;460.64;447.9;433.01;415.74;395.77;372.68;345.83;314.27;276.39;229.06;164.34;0;0;0;0;0;0;0;0;0;0;0;0;0;0;0;0;0;0;0;0;0;0;0;0;0;0;0;0;0;0;0;0;0;0;0;0;0;0;0;0;0;0;0;0;0;0;0;0;0;0;0;0;0;0;0;0;0;0;0;0;0;0;0;0;13.483;163.48;313.48;463.48;613.48;763.48;913.48;1063.5;1213.5;1261.5;1111.5;961.52;811.52;661.52;511.52;361.52;211.52;61.517;-88.483;-136.52;0;0;0;0;0;0;0;0;0;0;0;0;0;0;0;164.34;229.06;276.39;314.27;345.83;372.68;395.77;415.74;433.01;447.9;460.64;471.4;480.32;487.5;493.01;496.9;499.23;500;499.23;496.9;493.01;487.5;480.32;471.4;460.64;447.9;433.01;415.74;395.77;372.68;345.83;314.27;276.39;229.06;164.34;0;0;0;0;0;0;0;0;0;0;0;0;0;0;0;0;0;0;0;0;0;0;0;0;0;0;0;0;0;0;0;0;0;0;0;0;0;0;0;0;0;0;0;0;0;0;0;0;0;0;0;0;0;0;0;0;0;0;0;0;0;0;0;0;0;38.764;188.76;338.76;488.76;638.76;788.76;938.76;1088.8;1238.8;1236.2;1086.2;936.24;786.24;636.24;486.24;336.24;186.24;36.236;-113.76;-111.24;0;0;0;0;0;0;0;0;0;0;0;0;0;0;0;164.34;229.06;276.39;314.27;345.83;372.68;395.77;415.74;433.01;447.9;460.64;471.4;480.32;487.5;493.01;496.9;499.23;500;499.23;496.9;493.01;487.5;480.32;471.4;460.64;447.9;433.01;415.74;395.77;372.68;345.83;314.27;276.39;229.06;164.34;0;0;0;0;0;0;0;0;0;0;0;0;0;0;0;0;0;0;0;0;0;0;0;0;0;0;0;0;0;0;0;0;0;0;0;0;0;0;0;0;0;0;0;0;0;0;0;0;0;0;0;0;0;0;0;0;0;0;0;0;0;0;0;0;0;64.045;214.04;364.04;514.04;664.04;814.04;964.04;1114;1264;1211;1061;910.96;760.96;610.96;460.96;310.96;160.96;10.955;-139.04;-85.955;0;0;0;0;0;0;0;0;0;0;0;0;0;0;0;164.34;229.06;276.39;314.27;345.83;372.68;395.77;415.74;433.01;447.9;460.64;471.4;480.32;487.5;493.01;496.9;499.23;500;499.23;496.9;493.01;487.5;480.32;471.4;460.64;447.9;433.01;415.74;395.77;372.68;345.83;314.27;276.39;229.06;164.34;0;0;0;0;0;0;0;0;0;0;0;0;0;0;0;0;0;0;0;0;0;0;0;0;0;0;0;0;0;0;0;0;0;0;0;0;0;0;0;0;0;0;0;0;0;0;0;0;0;0;0;0;0;0;0;0;0;0;0;0;0;0;0;0;0;89.326;239.33;389.33;539.33;689.33;839.33;989.33;1139.3;1289.3;1185.7;1035.7;885.67;735.67;585.67;435.67;285.67;135.67;-14.326;-164.33;-60.674;0;0;0;0;0;0;0;0;0;0;0;0;0;0;0;164.34;229.06;276.39;314.27;345.83;372.68;395.77;415.74;433.01;447.9;460.64;471.4;480.32;487.5;493.01;496.9;499.23;500;499.23;496.9;493.01;487.5;480.32;471.4;460.64;447.9;433.01;415.74;395.77;372.68;345.83;314.27;276.39;229.06;164.34;0;0;0;0;0;0;0;0;0;0;0;0;0;0;0;0;0;0;0;0;0;0;0;0;0;0;0;0;0;0;0;0;0;0;0;0;0;0;0;0;0;0;0;0;0;0;0;0;0;0;0;0;0;0;0;0;0;0;0;0;0;0;0;0;0;114.61;264.61;414.61;564.61;714.61;864.61;1014.6;1164.6;1310.4;1160.4;1010.4;860.39;710.39;560.39;410.39;260.39;110.39;-39.607;-185.39;-35.393;0;0;0;0;0;0;0;0;0;0;0;0;0;0;0;164.34;229.06;276.39;314.27;345.83;372.68;395.77;415.74;433.01;447.9;460.64;471.4;480.32;487.5;493.01;496.9;499.23;500;499.23;496.9;493.01;487.5;480.32;471.4;460.64;447.9;433.01;415.74;395.77;372.68;345.83;314.27;276.39;229.06;164.34;0;0;0;0;0;0;0;0;0;0;0;0;0;0;0;0;0;0;0;0;0;0;0;0;0;0;0;0;0;0;0;0;0;0;0;0;0;0;0;0;0;0;0;0;0;0;0;0;0;0;0;0;0;0;0;0;0;0;0;0;0;0;0;0;0;139.89;289.89;439.89;589.89;739.89;889.89;1039.9;1189.9;1285.1;1135.1;985.11;835.11;685.11;535.11;385.11;235.11;85.112;-64.888;-160.11;-10.112;0;0;0;0;0;0;0;0;0;0;0;0;0;0;0;164.34;229.06;276.39;314.27;345.83;372.68;395.77;415.74;433.01;447.9;460.64;471.4;480.32;487.5;493.01;496.9;499.23;500;499.23;496.9;493.01;487.5;480.32;471.4;460.64;447.9;433.01;415.74;395.77;372.68;345.83;314.27;276.39;229.06;164.34;0;0;0;0;0;0;0;0;0;0;0;0;0;0;0;0;0;0;0;0;0;0;0;0;0;0;0;0;0;0;0;0;0;0;0;0;0;0;0;0;0;0;0;0;0;0;0;0;0;0;0;0;0;0;0;0;0;0;0;0;0;0;0;0;15.169;165.17;315.17;465.17;615.17;765.17;915.17;1065.2;1215.2;1259.8;1109.8;959.83;809.83;659.83;509.83;359.83;209.83;59.831;-90.169;-134.83;0;0;0;0;0;0;0;0;0;0;0;0;0;0;0;164.34;229.06;276.39;314.27;345.83;372.68;395.77;415.74;433.01;447.9;460.64;471.4;480.32;487.5;493.01;496.9;499.23;500;499.23;496.9;493.01;487.5;480.32;471.4;460.64;447.9;433.01;415.74;395.77;372.68;345.83;314.27;276.39;229.06;164.34;0;0;0;0;0;0;0;0;0;0;0;0;0;0;0;0;0;0;0;0;0;0;0;0;0;0;0;0;0;0;0;0;0;0;0;0;0;0;0;0;0;0;0;0;0;0;0;0;0;0;0;0;0;0;0;0;0;0;0;0;0;0;0;0;0;40.449;190.45;340.45;490.45;640.45;790.45;940.45;1090.4;1240.4;1234.6;1084.6;934.55;784.55;634.55;484.55;334.55;184.55;34.551;-115.45;-109.55;0;0;0;0;0;0;0;0;0;0;0;0;0;0;0;164.34;229.06;276.39;314.27;345.83;372.68;395.77;415.74;433.01;447.9;460.64;471.4;480.32;487.5;493.01;496.9;499.23;500;499.23;496.9;493.01;487.5;480.32;471.4;460.64;447.9;433.01;415.74;395.77;372.68;345.83;314.27;276.39;229.06;164.34;0;0;0;0;0;0;0;0;0;0;0;0;0;0;0;0;0;0;0;0;0;0;0;0;0;0;0;0;0;0;0;0;0;0;0;0;0;0;0;0;0;0;0;0;0;0;0;0;0;0;0;0;0;0;0;0;0;0;0;0;0;0;0;0;0;65.73;215.73;365.73;515.73;665.73;815.73;965.73;1115.7;1265.7;1209.3;1059.3;909.27;759.27;609.27;459.27;309.27;159.27;9.2697;-140.73;-84.27;0;0;0;0;0;0;0;0;0;0;0;0;0;0;0;164.34;229.06;276.39;314.27;345.83;372.68;395.77;415.74;433.01;447.9;460.64;471.4;480.32;487.5;493.01;496.9;499.23;500;499.23;496.9;493.01;487.5;480.32;471.4;460.64;447.9;433.01;415.74;395.77;372.68;345.83;314.27;276.39;229.06;164.34;0;0;0;0;0;0;0;0;0;0;0;0;0;0;0;0;0;0;0;0;0;0;0;0;0;0;0;0;0;0;0;0;0;0;0;0;0;0;0;0;0;0;0;0;0;0;0;0;0;0;0;0;0;0;0;0;0;0;0;0;0;0;0;0;0;91.011;241.01;391.01;541.01;691.01;841.01;991.01;1141;1291;1184;1034;883.99;733.99;583.99;433.99;283.99;133.99;-16.011;-166.01;-58.989;0;0;0;0;0;0;0;0;0;0;0;0;0;0;0;164.34;229.06;276.39;314.27;345.83;372.68;395.77;415.74;433.01;447.9;460.64;471.4;480.32;487.5;493.01;496.9;499.23;500;499.23;496.9;493.01;487.5;480.32;471.4;460.64;447.9;433.01;415.74;395.77;372.68;345.83;314.27;276.39;229.06;164.34;0;0;0;0;0;0;0;0;0;0;0;0;0;0;0;0;0;0;0;0;0;0;0;0;0;0;0;0;0;0;0;0;0;0;0;0;0;0;0;0;0;0;0;0;0;0;0;0;0;0;0;0;0;0;0;0;0;0;0;0;0;0;0;0;0;116.29;266.29;416.29;566.29;716.29;866.29;1016.3;1166.3;1308.7;1158.7;1008.7;858.71;708.71;558.71;408.71;258.71;108.71;-41.292;-183.71;-33.708;0;0;0;0;0;0;0;0;0;0;0;0;0;0;0;164.34;229.06;276.39;314.27;345.83;372.68;395.77;415.74;433.01;447.9;460.64;471.4;480.32;487.5;493.01;496.9;499.23;500;499.23;496.9;493.01;487.5;480.32;471.4;460.64;447.9;433.01;415.74;395.77;372.68;345.83;314.27;276.39;229.06;164.34;0;0;0;0;0;0;0;0;0;0;0;0;0;0;0;0;0;0;0;0;0;0;0;0;0;0;0;0;0;0;0;0;0;0;0;0;0;0;0;0;0;0;0;0;0;0;0;0;0;0;0;0;0;0;0;0;0;0;0;0;0;0;0;0;0;141.57;291.57;441.57;591.57;741.57;891.57;1041.6;1191.6;1283.4;1133.4;983.43;833.43;683.43;533.43;383.43;233.43;83.427;-66.573;-158.43;-8.427;0;0;0;0;0;0;0;0;0;0;0;0;0;0;0;164.34;229.06;276.39;314.27;345.83;372.68;395.77;415.74;433.01;447.9;460.64;471.4;480.32;487.5;493.01;496.9;499.23;500;499.23;496.9;493.01;487.5;480.32;471.4;460.64;447.9;433.01;415.74;395.77;372.68;345.83;314.27;276.39;229.06;164.34;0;0;0;0;0;0;0;0;0;0;0;0;0;0;0;0;0;0;0;0;0;0;0;0;0;0;0;0;0;0;0;0;0;0;0;0;0;0;0;0;0;0;0;0;0;0;0;0;0;0;0;0;0;0;0;0;0;0;0;0;0;0;0;0;16.854;166.85;316.85;466.85;616.85;766.85;916.85;1066.9;1216.9;1258.1;1108.1;958.15;808.15;658.15;508.15;358.15;208.15;58.146;-91.854;-133.15;0;0;0;0;0;0;0;0;0;0;0;0;0;0;0;164.34;229.06;276.39;314.27;345.83;372.68;395.77;415.74;433.01;447.9;460.64;471.4;480.32;487.5;493.01;496.9;499.23;500;499.23;496.9;493.01;487.5;480.32;471.4;460.64;447.9;433.01;415.74;395.77;372.68;345.83;314.27;276.39;229.06;164.34;0;0;0;0;0;0;0;0;0;0;0;0;0;0;0;0;0;0;0;0;0;0;0;0;0;0;0;0;0;0;0;0;0;0;0;0;0;0;0;0;0;0;0;0;0;0;0;0;0;0;0;0;0;0;0;0;0;0;0;0;0;0;0;0;0;42.135;192.13;342.13;492.13;642.13;792.13;942.13;1092.1;1242.1;1232.9;1082.9;932.87;782.87;632.87;482.87;332.87;182.87;32.865;-117.13;-107.87;0;0;0;0;0;0;0;0;0;0;0;0;0;0;0;164.34;229.06;276.39;314.27;345.83;372.68;395.77;415.74;433.01;447.9;460.64;471.4;480.32;487.5;493.01;496.9;499.23;500;499.23;496.9;493.01;487.5;480.32;471.4;460.64;447.9;433.01;415.74;395.77;372.68;345.83;314.27;276.39;229.06;164.34;0;0;0;0;0;0;0;0;0;0;0;0;0;0;0;0;0;0;0;0;0;0;0;0;0;0;0;0;0;0;0;0;0;0;0;0;0;0;0;0;0;0;0;0;0;0;0;0;0;0;0;0;0;0;0;0;0;0;0;0;0;0;0;0;0;67.416;217.42;367.42;517.42;667.42;817.42;967.42;1117.4;1267.4;1207.6;1057.6;907.58;757.58;607.58;457.58;307.58;157.58;7.5843;-142.42;-82.584;0;0;0;0;0;0;0;0;0;0;0;0;0;0;0;164.34;229.06;276.39;314.27;345.83;372.68;395.77;415.74;433.01;447.9;460.64;471.4;480.32;487.5;493.01;496.9;499.23;500;499.23;496.9;493.01;487.5;480.32;471.4;460.64;447.9;433.01;415.74;395.77;372.68;345.83;314.27;276.39;229.06;164.34;0;0;0;0;0;0;0;0;0;0;0;0;0;0;0;0;0;0;0;0;0;0;0;0;0;0;0;0;0;0;0;0;0;0;0;0;0;0;0;0;0;0;0;0;0;0;0;0;0;0;0;0;0;0;0;0;0;0;0;0;0;0;0;0;0;92.697;242.7;392.7;542.7;692.7;842.7;992.7;1142.7;1292.7;1182.3;1032.3;882.3;732.3;582.3;432.3;282.3;132.3;-17.697;-167.7;-57.303;0;0;0;0;0;0;0;0;0;0;0;0;0;0;0;164.34;229.06;276.39;314.27;345.83;372.68;395.77;415.74;433.01;447.9;460.64;471.4;480.32;487.5;493.01;496.9;499.23;500;499.23;496.9;493.01;487.5;480.32;471.4;460.64;447.9;433.01;415.74;395.77;372.68;345.83;314.27;276.39;229.06;164.34;0;0;0;0;0;0;0;0;0;0;0;0;0;0;0;0;0;0;0;0;0;0;0;0;0;0;0;0;0;0;0;0;0;0;0;0;0;0;0;0;0;0;0;0;0;0;0;0;0;0;0;0;0;0;0;0;0;0;0;0;0;0;0;0;0;117.98;267.98;417.98;567.98;717.98;867.98;1018;1168;1307;1157;1007;857.02;707.02;557.02;407.02;257.02;107.02;-42.978;-182.02;-32.022;0;0;0;0;0;0;0;0;0;0;0;0;0;0;0;164.34;229.06;276.39;314.27;345.83;372.68;395.77;415.74;433.01;447.9;460.64;471.4;480.32;487.5;493.01;496.9;499.23;500;499.23;496.9;493.01;487.5;480.32;471.4;460.64;447.9;433.01;415.74;395.77;372.68;345.83;314.27;276.39;229.06;164.34;0;0;0;0;0;0;0;0;0;0;0;0;0;0;0;0;0;0;0;0;0;0;0;0;0;0;0;0;0;0;0;0;0;0;0;0;0;0;0;0;0;0;0;0;0;0;0;0;0;0;0;0;0;0;0;0;0;0;0;0;0;0;0;0;0;143.26;293.26;443.26;593.26;743.26;893.26;1043.3;1193.3;1281.7;1131.7;981.74;831.74;681.74;531.74;381.74;231.74;81.742;-68.258;-156.74;-6.7416;0;0;0;0;0;0;0;0;0;0;0;0;0;0;0;164.34;229.06;276.39;314.27;345.83;372.68;395.77;415.74;433.01;447.9;460.64;471.4;480.32;487.5;493.01;496.9;499.23;500;499.23;496.9;493.01;487.5;480.32;471.4;460.64;447.9;433.01;415.74;395.77;372.68;345.83;314.27;276.39;229.06;164.34;0;0;0;0;0;0;0;0;0;0;0;0;0;0;0;0;0;0;0;0;0;0;0;0;0;0;0;0;0;0;0;0;0;0;0;0;0;0;0;0;0;0;0;0;0;0;0;0;0;0;0;0;0;0;0;0;0;0;0;0;0;0;0;0;18.539;168.54;318.54;468.54;618.54;768.54;918.54;1068.5;1218.5;1256.5;1106.5;956.46;806.46;656.46;506.46;356.46;206.46;56.461;-93.539;-131.46;0;0;0;0;0;0;0;0;0;0;0;0;0;0;0;164.34;229.06;276.39;314.27;345.83;372.68;395.77;415.74;433.01;447.9;460.64;471.4;480.32;487.5;493.01;496.9;499.23;500;499.23;496.9;493.01;487.5;480.32;471.4;460.64;447.9;433.01;415.74;395.77;372.68;345.83;314.27;276.39;229.06;164.34;0;0;0;0;0;0;0;0;0;0;0;0;0;0;0;0;0;0;0;0;0;0;0;0;0;0;0;0;0;0;0;0;0;0;0;0;0;0;0;0;0;0;0;0;0;0;0;0;0;0;0;0;0;0;0;0;0;0;0;0;0;0;0;0;0;43.82;193.82;343.82;493.82;643.82;793.82;943.82;1093.8;1243.8;1231.2;1081.2;931.18;781.18;631.18;481.18;331.18;181.18;31.18;-118.82;-106.18;0;0;0;0;0;0;0;0;0;0;0;0;0;0;0;164.34;229.06;276.39;314.27;345.83;372.68;395.77;415.74;433.01;447.9;460.64;471.4;480.32;487.5;493.01;496.9;499.23;500;499.23;496.9;493.01;487.5;480.32;471.4;460.64;447.9;433.01;415.74;395.77;372.68;345.83;314.27;276.39;229.06;164.34;0;0;0;0;0;0;0;0;0;0;0;0;0;0;0;0;0;0;0;0;0;0;0;0;0;0;0;0;0;0;0;0;0;0;0;0;0;0;0;0;0;0;0;0;0;0;0;0;0;0;0;0;0;0;0;0;0;0;0;0;0;0;0;0;0;69.101;219.1;369.1;519.1;669.1;819.1;969.1;1119.1;1269.1;1205.9;1055.9;905.9;755.9;605.9;455.9;305.9;155.9;5.8989;-144.1;-80.899;0;0;0;0;0;0;0;0;0;0;0;0;0;0;0;164.34;229.06;276.39;314.27;345.83;372.68;395.77;415.74;433.01;447.9;460.64;471.4;480.32;487.5;493.01;496.9;499.23;500;499.23;496.9;493.01;487.5;480.32;471.4;460.64;447.9;433.01;415.74;395.77;372.68;345.83;314.27;276.39;229.06;164.34;0;0;0;0;0;0;0;0;0;0;0;0;0;0;0;0;0;0;0;0;0;0;0;0;0;0;0;0;0;0;0;0;0;0;0;0;0;0;0;0;0;0;0;0;0;0;0;0;0;0;0;0;0;0;0;0;0;0;0;0;0;0;0;0;0;94.382;244.38;394.38;544.38;694.38;844.38;994.38;1144.4;1294.4;1180.6;1030.6;880.62;730.62;580.62;430.62;280.62;130.62;-19.382;-169.38;-55.618;0;0;0;0;0;0;0;0;0;0;0;0;0;0;0;164.34;229.06;276.39;314.27;345.83;372.68;395.77;415.74;433.01;447.9;460.64;471.4;480.32;487.5;493.01;496.9;499.23;500;499.23;496.9;493.01;487.5;480.32;471.4;460.64;447.9;433.01;415.74;395.77;372.68;345.83;314.27;276.39;229.06;164.34;0;0;0;0;0;0;0;0;0;0;0;0;0;0;0;0;0;0;0;0;0;0;0;0;0;0;0;0;0;0;0;0;0;0;0;0;0;0;0;0;0;0;0;0;0;0;0;0;0;0;0;0;0;0;0;0;0;0;0;0;0;0;0;0;0;119.66;269.66;419.66;569.66;719.66;869.66;1019.7;1169.7;1305.3;1155.3;1005.3;855.34;705.34;555.34;405.34;255.34;105.34;-44.663;-180.34;-30.337;0;0;0;0;0;0;0;0;0;0;0;0;0;0;0;164.34;229.06;276.39;314.27;345.83;372.68;395.77;415.74;433.01;447.9;460.64;471.4;480.32;487.5;493.01;496.9;499.23;500;499.23;496.9;493.01;487.5;480.32;471.4;460.64;447.9;433.01;415.74;395.77;372.68;345.83;314.27;276.39;229.06;164.34;0;0;0;0;0;0;0;0;0;0;0;0;0;0;0;0;0;0;0;0;0;0;0;0;0;0;0;0;0;0;0;0;0;0;0;0;0;0;0;0;0;0;0;0;0;0;0;0;0;0;0;0;0;0;0;0;0;0;0;0;0;0;0;0;0;144.94;294.94;444.94;594.94;744.94;894.94;1044.9;1194.9;1280.1;1130.1;980.06;830.06;680.06;530.06;380.06;230.06;80.056;-69.944;-155.06;-5.0562;0;0;0;0;0;0;0;0;0;0;0;0;0;0;0;164.34;229.06;276.39;314.27;345.83;372.68;395.77;415.74;433.01;447.9;460.64;471.4;480.32;487.5;493.01;496.9;499.23;500;499.23;496.9;493.01;487.5;480.32;471.4;460.64;447.9;433.01;415.74;395.77;372.68;345.83;314.27;276.39;229.06;164.34;0;0;0;0;0;0;0;0;0;0;0;0;0;0;0;0;0;0;0;0;0;0;0;0;0;0;0;0;0;0;0;0;0;0;0;0;0;0;0;0;0;0;0;0;0;0;0;0;0;0;0;0;0;0;0;0;0;0;0;0;0;0;0;0;20.225;170.22;320.22;470.22;620.22;770.22;920.22;1070.2;1220.2;1254.8;1104.8;954.78;804.78;654.78;504.78;354.78;204.78;54.775;-95.225;-129.78;0;0;0;0;0;0;0;0;0;0;0;0;0;0;0;164.34;229.06;276.39;314.27;345.83;372.68;395.77;415.74;433.01;447.9;460.64;471.4;480.32;487.5;493.01;496.9;499.23;500;499.23;496.9;493.01;487.5;480.32;471.4;460.64;447.9;433.01;415.74;395.77;372.68;345.83;314.27;276.39;229.06;164.34;0;0;0;0;0;0;0;0;0;0;0;0;0;0;0;0;0;0;0;0;0;0;0;0;0;0;0;0;0;0;0;0;0;0;0;0;0;0;0;0;0;0;0;0;0;0;0;0;0;0;0;0;0;0;0;0;0;0;0;0;0;0;0;0;0;45.506;195.51;345.51;495.51;645.51;795.51;945.51;1095.5;1245.5;1229.5;1079.5;929.49;779.49;629.49;479.49;329.49;179.49;29.494;-120.51;-104.49;0;0;0;0;0;0;0;0;0;0;0;0;0;0;0;164.34;229.06;276.39;314.27;345.83;372.68;395.77;415.74;433.01;447.9;460.64;471.4;480.32;487.5;493.01;496.9;499.23;500;499.23;496.9;493.01;487.5;480.32;471.4;460.64;447.9;433.01;415.74;395.77;372.68;345.83;314.27;276.39;229.06;164.34;0;0;0;0;0;0;0;0;0;0;0;0;0;0;0;0;0;0;0;0;0;0;0;0;0;0;0;0;0;0;0;0;0;0;0;0;0;0;0;0;0;0;0;0;0;0;0;0;0;0;0;0;0;0;0;0;0;0;0;0;0;0;0;0;0;70.787;220.79;370.79;520.79;670.79;820.79;970.79;1120.8;1270.8;1204.2;1054.2;904.21;754.21;604.21;454.21;304.21;154.21;4.2135;-145.79;-79.213;0;0;0;0;0;0;0;0;0;0;0;0;0;0;0;164.34;229.06;276.39;314.27;345.83;372.68;395.77;415.74;433.01;447.9;460.64;471.4;480.32;487.5;493.01;496.9;499.23;500;499.23;496.9;493.01;487.5;480.32;471.4;460.64;447.9;433.01;415.74;395.77;372.68;345.83;314.27;276.39;229.06;164.34;0;0;0;0;0;0;0;0;0;0;0;0;0;0;0;0;0;0;0;0;0;0;0;0;0;0;0;0;0;0;0;0;0;0;0;0;0;0;0;0;0;0;0;0;0;0;0;0;0;0;0;0;0;0;0;0;0;0;0;0;0;0;0;0;0;96.067;246.07;396.07;546.07;696.07;846.07;996.07;1146.1;1296.1;1178.9;1028.9;878.93;728.93;578.93;428.93;278.93;128.93;-21.067;-171.07;-53.933;0;0;0;0;0;0;0;0;0;0;0;0;0;0;0;164.34;229.06;276.39;314.27;345.83;372.68;395.77;415.74;433.01;447.9;460.64;471.4;480.32;487.5;493.01;496.9;499.23;500;499.23;496.9;493.01;487.5;480.32;471.4;460.64;447.9;433.01;415.74;395.77;372.68;345.83;314.27;276.39;229.06;164.34;0;0;0;0;0;0;0;0;0;0;0;0;0;0;0;0;0;0;0;0;0;0;0;0;0;0;0;0;0;0;0;0;0;0;0;0;0;0;0;0;0;0;0;0;0;0;0;0;0;0;0;0;0;0;0;0;0;0;0;0;0;0;0;0;0;121.35;271.35;421.35;571.35;721.35;871.35;1021.3;1171.3;1303.7;1153.7;1003.7;853.65;703.65;553.65;403.65;253.65;103.65;-46.348;-178.65;-28.652;0;0;0;0;0;0;0;0;0;0;0;0;0;0;0;164.34;229.06;276.39;314.27;345.83;372.68;395.77;415.74;433.01;447.9;460.64;471.4;480.32;487.5;493.01;496.9;499.23;500;499.23;496.9;493.01;487.5;480.32;471.4;460.64;447.9;433.01;415.74;395.77;372.68;345.83;314.27;276.39;229.06;164.34;0;0;0;0;0;0;0;0;0;0;0;0;0;0;0;0;0;0;0;0;0;0;0;0;0;0;0;0;0;0;0;0;0;0;0;0;0;0;0;0;0;0;0;0;0;0;0;0;0;0;0;0;0;0;0;0;0;0;0;0;0;0;0;0;0;146.63;296.63;446.63;596.63;746.63;896.63;1046.6;1196.6;1278.4;1128.4;978.37;828.37;678.37;528.37;378.37;228.37;78.371;-71.629;-153.37;-3.3708;0;0;0;0;0;0;0;0;0;0;0;0;0;0;0;164.34;229.06;276.39;314.27;345.83;372.68;395.77;415.74;433.01;447.9;460.64;471.4;480.32;487.5;493.01;496.9;499.23;500;499.23;496.9;493.01;487.5;480.32;471.4;460.64;447.9;433.01;415.74;395.77;372.68;345.83;314.27;276.39;229.06;164.34;0;0;0;0;0;0;0;0;0;0;0;0;0;0;0;0;0;0;0;0;0;0;0;0;0;0;0;0;0;0;0;0;0;0;0;0;0;0;0;0;0;0;0;0;0;0;0;0;0;0;0;0;0;0;0;0;0;0;0;0;0;0;0;0;21.91;171.91;321.91;471.91;621.91;771.91;921.91;1071.9;1221.9;1253.1;1103.1;953.09;803.09;653.09;503.09;353.09;203.09;53.09;-96.91;-128.09;0;0;0;0;0;0;0;0;0;0;0;0;0;0;0;164.34;229.06;276.39;314.27;345.83;372.68;395.77;415.74;433.01;447.9;460.64;471.4;480.32;487.5;493.01;496.9;499.23;500;499.23;496.9;493.01;487.5;480.32;471.4;460.64;447.9;433.01;415.74;395.77;372.68;345.83;314.27;276.39;229.06;164.34;0;0;0;0;0;0;0;0;0;0;0;0;0;0;0;0;0;0;0;0;0;0;0;0;0;0;0;0;0;0;0;0;0;0;0;0;0;0;0;0;0;0;0;0;0;0;0;0;0;0;0;0;0;0;0;0;0;0;0;0;0;0;0;0;0;47.191;197.19;347.19;497.19;647.19;797.19;947.19;1097.2;1247.2;1227.8;1077.8;927.81;777.81;627.81;477.81;327.81;177.81;27.809;-122.19;-102.81;0;0;0;0;0;0;0;0;0;0;0;0;0;0;0;164.34;229.06;276.39;314.27;345.83;372.68;395.77;415.74;433.01;447.9;460.64;471.4;480.32;487.5;493.01;496.9;499.23;500;499.23;496.9;493.01;487.5;480.32;471.4;460.64;447.9;433.01;415.74;395.77;372.68;345.83;314.27;276.39;229.06;164.34;0;0;0;0;0;0;0;0;0;0;0;0;0;0;0;0;0;0;0;0;0;0;0;0;0;0;0;0;0;0;0;0;0;0;0;0;0;0;0;0;0;0;0;0;0;0;0;0;0;0;0;0;0;0;0;0;0;0;0;0;0;0;0;0;0;72.472;222.47;372.47;522.47;672.47;822.47;972.47;1122.5;1272.5;1202.5;1052.5;902.53;752.53;602.53;452.53;302.53;152.53;2.5281;-147.47;-77.528;0;0;0;0;0;0;0;0;0;0;0;0;0;0;0;164.34;229.06;276.39;314.27;345.83;372.68;395.77;415.74;433.01;447.9;460.64;471.4;480.32;487.5;493.01;496.9;499.23;500;499.23;496.9;493.01;487.5;480.32;471.4;460.64;447.9;433.01;415.74;395.77;372.68;345.83;314.27;276.39;229.06;164.34;0;0;0;0;0;0;0;0;0;0;0;0;0;0;0;0;0;0;0;0;0;0;0;0;0;0;0;0;0;0;0;0;0;0;0;0;0;0;0;0;0;0;0;0;0;0;0;0;0;0;0;0;0;0;0;0;0;0;0;0;0;0;0;0;0;97.753;247.75;397.75;547.75;697.75;847.75;997.75;1147.8;1297.8;1177.2;1027.2;877.25;727.25;577.25;427.25;277.25;127.25;-22.753;-172.75;-52.247;0;0;0;0;0;0;0;0;0;0;0;0;0;0;0;164.34;229.06;276.39;314.27;345.83;372.68;395.77;415.74;433.01;447.9;460.64;471.4;480.32;487.5;493.01;496.9;499.23;500;499.23;496.9;493.01;487.5;480.32;471.4;460.64;447.9;433.01;415.74;395.77;372.68;345.83;314.27;276.39;229.06;164.34;0;0;0;0;0;0;0;0;0;0;0;0;0;0;0;0;0;0;0;0;0;0;0;0;0;0;0;0;0;0;0;0;0;0;0;0;0;0;0;0;0;0;0;0;0;0;0;0;0;0;0;0;0;0;0;0;0;0;0;0;0;0;0;0;0;123.03;273.03;423.03;573.03;723.03;873.03;1023;1173;1302;1152;1002;851.97;701.97;551.97;401.97;251.97;101.97;-48.034;-176.97;-26.966;0;0;0;0;0;0;0;0;0;0;0;0;0;0;0;164.34;229.06;276.39;314.27;345.83;372.68;395.77;415.74;433.01;447.9;460.64;471.4;480.32;487.5;493.01;496.9;499.23;500;499.23;496.9;493.01;487.5;480.32;471.4;460.64;447.9;433.01;415.74;395.77;372.68;345.83;314.27;276.39;229.06;164.34;0;0;0;0;0;0;0;0;0;0;0;0;0;0;0;0;0;0;0;0;0;0;0;0;0;0;0;0;0;0;0;0;0;0;0;0;0;0;0;0;0;0;0;0;0;0;0;0;0;0;0;0;0;0;0;0;0;0;0;0;0;0;0;0;0;148.31;298.31;448.31;598.31;748.31;898.31;1048.3;1198.3;1276.7;1126.7;976.69;826.69;676.69;526.69;376.69;226.69;76.685;-73.315;-151.69;-1.6854;0;0;0;0;0;0;0;0;0;0;0;0;0;0;0;164.34;229.06;276.39;314.27;345.83;372.68;395.77;415.74;433.01;447.9;460.64;471.4;480.32;487.5;493.01;496.9;499.23;500;499.23;496.9;493.01;487.5;480.32;471.4;460.64;447.9;433.01;415.74;395.77;372.68;345.83;314.27;276.39;229.06;164.34;0;0;0;0;0;0;0;0;0;0;0;0;0;0;0;0;0;0;0;0;0;0;0;0;0;0;0;0;0;0;0;0;0;0;0;0;0;0;0;0;0;0;0;0;0;0;0;0;0;0;0;0;0;0;0;0;0;0;0;0;0;0;0;0;23.596;173.6;323.6;473.6;623.6;773.6;923.6;1073.6;1223.6;1251.4;1101.4;951.4;801.4;651.4;501.4;351.4;201.4;51.404;-98.596;-126.4;0;0;0;0;0;0;0;0;0;0;0;0;0;0;0;164.34;229.06;276.39;314.27;345.83;372.68;395.77;415.74;433.01;447.9;460.64;471.4;480.32;487.5;493.01;496.9;499.23;500;499.23;496.9;493.01;487.5;480.32;471.4;460.64;447.9;433.01;415.74;395.77;372.68;345.83;314.27;276.39;229.06;164.34;0;0;0;0;0;0;0;0;0;0;0;0;0;0;0;0;0;0;0;0;0;0;0;0;0;0;0;0;0;0;0;0;0;0;0;0;0;0;0;0;0;0;0;0;0;0;0;0;0;0;0;0;0;0;0;0;0;0;0;0;0;0;0;0;0;48.876;198.88;348.88;498.88;648.88;798.88;948.88;1098.9;1248.9;1226.1;1076.1;926.12;776.12;626.12;476.12;326.12;176.12;26.124;-123.88;-101.12;0;0;0;0;0;0;0;0;0;0;0;0;0;0;0;164.34;229.06;276.39;314.27;345.83;372.68;395.77;415.74;433.01;447.9;460.64;471.4;480.32;487.5;493.01;496.9;499.23;500;499.23;496.9;493.01;487.5;480.32;471.4;460.64;447.9;433.01;415.74;395.77;372.68;345.83;314.27;276.39;229.06;164.34;0;0;0;0;0;0;0;0;0;0;0;0;0;0;0;0;0;0;0;0;0;0;0;0;0;0;0;0;0;0;0;0;0;0;0;0;0;0;0;0;0;0;0;0;0;0;0;0;0;0;0;0;0;0;0;0;0;0;0;0;0;0;0;0;0;74.157;224.16;374.16;524.16;674.16;824.16;974.16;1124.2;1274.2;1200.8;1050.8;900.84;750.84;600.84;450.84;300.84;150.84;0.8427;-149.16;-75.843;0;0;0;0;0;0;0;0;0;0;0;0;0;0;0;164.34;229.06;276.39;314.27;345.83;372.68;395.77;415.74;433.01;447.9;460.64;471.4;480.32;487.5;493.01;496.9;499.23;500;499.23;496.9;493.01;487.5;480.32;471.4;460.64;447.9;433.01;415.74;395.77;372.68;345.83;314.27;276.39;229.06;164.34;0;0;0;0;0;0;0;0;0;0;0;0;0;0;0;0;0;0;0;0;0;0;0;0;0;0;0;0;0;0;0;0;0;0;0;0;0;0;0;0;0;0;0;0;0;0;0;0;0;0;0;0;0;0;0;0;0;0;0;0;0;0;0;0;0;99.438;249.44;399.44;549.44;699.44;849.44;999.44;1149.4;1299.4;1175.6;1025.6;875.56;725.56;575.56;425.56;275.56;125.56;-24.438;-174.44;-50.562;0;0;0;0;0;0;0;0;0;0;0;0;0;0;0;164.34;229.06;276.39;314.27;345.83;372.68;395.77;415.74;433.01;447.9;460.64;471.4;480.32;487.5;493.01;496.9;499.23;500;499.23;496.9;493.01;487.5;480.32;471.4;460.64;447.9;433.01;415.74;395.77;372.68;345.83;314.27;276.39;229.06;164.34;0;0;0;0;0;0;0;0;0;0;0;0;0;0;0;0;0;0;0;0;0;0;0;0;0;0;0;0;0;0;0;0;0;0;0;0;0;0;0;0;0;0;0;0;0;0;0;0;0;0;0;0;0;0;0;0;0;0;0;0;0;0;0;0;0;124.72;274.72;424.72;574.72;724.72;874.72;1024.7;1174.7;1300.3;1150.3;1000.3;850.28;700.28;550.28;400.28;250.28;100.28;-49.719;-175.28;-25.281;0;0;0;0;0;0;0;0;0;0;0;0;0;0;0;164.34;229.06;276.39;314.27;345.83;372.68;395.77;415.74;433.01;447.9;460.64;471.4;480.32;487.5;493.01;496.9;499.23;500;499.23;496.9;493.01;487.5;480.32;471.4;460.64;447.9;433.01;415.74;395.77;372.68;345.83;314.27;276.39;229.06;164.34;0;0;0;0;0;0;0;0;0;0;0;0;0;0;0;0;0;0;0;0;0;0;0;0;0;0;0;0;0;0;0;0;0;0;0;0;0;0;0;0;0;0;0;0;0;0;0;0;0;0;0;0;0;0;0;0;0;0;0;0;0;0;0;0;0;150;300;450;600;750;900;1050;1200;1275;1125;975;825;675;525;375;225;75;-75;-150;-5.3551e-09;0;0;0;0;0;0;0;0;0;0;0;0;0;0;0;164.34;229.06;276.39;314.27;345.83;372.68;395.77;415.74;433.01;447.9;460.64;471.4;480.32;487.5;493.01;496.9;499.23;500;499.23;496.9;493.01;487.5;480.32;471.4;460.64;447.9;433.01;415.74;395.77;372.68;345.83;314.27;276.39;229.06;164.34;0;0;0;0;0;0;0;0;0;0;0;0;0;0;0;0;0;0;0;0;0;0;0;0;0;0;0;0;0;0;0;0;0;0;0;0;0;0;0;0;0;0;0;0;0;0;0;0;0;0;0;0;0;0;0;0;0;0;0;0;0;0;0;0;25.281;175.28;325.28;475.28;625.28;775.28;925.28;1075.3;1225.3;1249.7;1099.7;949.72;799.72;649.72;499.72;349.72;199.72;49.719;-100.28;-124.72;0;0;0;0;0;0;0;0;0;0;0;0;0;0;0;164.34;229.06;276.39;314.27;345.83;372.68;395.77;415.74;433.01;447.9;460.64;471.4;480.32;487.5;493.01;496.9;499.23;500;499.23;496.9;493.01;487.5;480.32;471.4;460.64;447.9;433.01;415.74;395.77;372.68;345.83;314.27;276.39;229.06;164.34;0;0;0;0;0;0;0;0;0;0;0;0;0;0;0;0;0;0;0;0;0;0;0;0;0;0;0;0;0;0;0;0;0;0;0;0;0;0;0;0;0;0;0;0;0;0;0;0;0;0;0;0;0;0;0;0;0;0;0;0;0;0;0;0;0;50.562;200.56;350.56;500.56;650.56;800.56;950.56;1100.6;1250.6;1224.4;1074.4;924.44;774.44;624.44;474.44;324.44;174.44;24.438;-125.56;-99.438;0;0;0;0;0;0;0;0;0;0;0;0;0;0;0;164.34;229.06;276.39;314.27;345.83;372.68;395.77;415.74;433.01;447.9;460.64;471.4;480.32;487.5;493.01;496.9;499.23;500;499.23;496.9;493.01;487.5;480.32;471.4;460.64;447.9;433.01;415.74;395.77;372.68;345.83;314.27;276.39;229.06;164.34;0;0;0;0;0;0;0;0;0;0;0;0;0;0;0;0;0;0;0;0;0;0;0;0;0;0;0;0;0;0;0;0;0;0;0;0;0;0;0;0;0;0;0;0;0;0;0;0;0;0;0;0;0;0;0;0;0;0;0;0;0;0;0;0;0;75.843;225.84;375.84;525.84;675.84;825.84;975.84;1125.8;1275.8;1199.2;1049.2;899.16;749.16;599.16;449.16;299.16;149.16;-0.8427;-150.84;-74.157;0;0;0;0;0;0;0;0;0;0;0;0;0;0;0;164.34;229.06;276.39;314.27;345.83;372.68;395.77;415.74;433.01;447.9;460.64;471.4;480.32;487.5;493.01;496.9;499.23;500;499.23;496.9;493.01;487.5;480.32;471.4;460.64;447.9;433.01;415.74;395.77;372.68;345.83;314.27;276.39;229.06;164.34;0;0;0;0;0;0;0;0;0;0;0;0;0;0;0;0;0;0;0;0;0;0;0;0;0;0;0;0;0;0;0;0;0;0;0;0;0;0;0;0;0;0;0;0;0;0;0;0;0;0;0;0;0;0;0;0;0;0;0;0;0;0;0;0;0;101.12;251.12;401.12;551.12;701.12;851.12;1001.1;1151.1;1301.1;1173.9;1023.9;873.88;723.88;573.88;423.88;273.88;123.88;-26.124;-176.12;-48.876;0;0;0;0;0;0;0;0;0;0;0;0;0;0;0;164.34;229.06;276.39;314.27;345.83;372.68;395.77;415.74;433.01;447.9;460.64;471.4;480.32;487.5;493.01;496.9;499.23;500;499.23;496.9;493.01;487.5;480.32;471.4;460.64;447.9;433.01;415.74;395.77;372.68;345.83;314.27;276.39;229.06;164.34;0;0;0;0;0;0;0;0;0;0;0;0;0;0;0;0;0;0;0;0;0;0;0;0;0;0;0;0;0;0;0;0;0;0;0;0;0;0;0;0;0;0;0;0;0;0;0;0;0;0;0;0;0;0;0;0;0;0;0;0;0;0;0;0;0;126.4;276.4;426.4;576.4;726.4;876.4;1026.4;1176.4;1298.6;1148.6;998.6;848.6;698.6;548.6;398.6;248.6;98.596;-51.404;-173.6;-23.596;0;0;0;0;0;0;0;0;0;0;0;0;0;0;0;164.34;229.06;276.39;314.27;345.83;372.68;395.77;415.74;433.01;447.9;460.64;471.4;480.32;487.5;493.01;496.9;499.23;500;499.23;496.9;493.01;487.5;480.32;471.4;460.64;447.9;433.01;415.74;395.77;372.68;345.83;314.27;276.39;229.06;164.34;0;0;0;0;0;0;0;0;0;0;0;0;0;0;0;0;0;0;0;0;0;0;0;0;0;0;0;0;0;0;0;0;0;0;0;0;0;0;0;0;0;0;0;0;0;0;0;0;0;0;0;0;0;0;0;0;0;0;0;0;0;0;0;0;1.6854;151.69;301.69;451.69;601.69;751.69;901.69;1051.7;1201.7;1273.3;1123.3;973.31;823.31;673.31;523.31;373.31;223.31;73.315;-76.685;-148.31;0;0;0;0;0;0;0;0;0;0;0;0;0;0;0;164.34;229.06;276.39;314.27;345.83;372.68;395.77;415.74;433.01;447.9;460.64;471.4;480.32;487.5;493.01;496.9;499.23;500;499.23;496.9;493.01;487.5;480.32;471.4;460.64;447.9;433.01;415.74;395.77;372.68;345.83;314.27;276.39;229.06;164.34;0;0;0;0;0;0;0;0;0;0;0;0;0;0;0;0;0;0;0;0;0;0;0;0;0;0;0;0;0;0;0;0;0;0;0;0;0;0;0;0;0;0;0;0;0;0;0;0;0;0;0;0;0;0;0;0;0;0;0;0;0;0;0;0;0;26.966;176.97;326.97;476.97;626.97;776.97;926.97;1077;1227;1248;1098;948.03;798.03;648.03;498.03;348.03;198.03;48.034;-101.97;-123.03;0;0;0;0;0;0;0;0;0;0;0;0;0;0;0;164.34;229.06;276.39;314.27;345.83;372.68;395.77;415.74;433.01;447.9;460.64;471.4;480.32;487.5;493.01;496.9;499.23;500;499.23;496.9;493.01;487.5;480.32;471.4;460.64;447.9;433.01;415.74;395.77;372.68;345.83;314.27;276.39;229.06;164.34;0;0;0;0;0;0;0;0;0;0;0;0;0;0;0;0;0;0;0;0;0;0;0;0;0;0;0;0;0;0;0;0;0;0;0;0;0;0;0;0;0;0;0;0;0;0;0;0;0;0;0;0;0;0;0;0;0;0;0;0;0;0;0;0;0;52.247;202.25;352.25;502.25;652.25;802.25;952.25;1102.2;1252.2;1222.8;1072.8;922.75;772.75;622.75;472.75;322.75;172.75;22.753;-127.25;-97.753;0;0;0;0;0;0;0;0;0;0;0;0;0;0;0;164.34;229.06;276.39;314.27;345.83;372.68;395.77;415.74;433.01;447.9;460.64;471.4;480.32;487.5;493.01;496.9;499.23;500;499.23;496.9;493.01;487.5;480.32;471.4;460.64;447.9;433.01;415.74;395.77;372.68;345.83;314.27;276.39;229.06;164.34;0;0;0;0;0;0;0;0;0;0;0;0;0;0;0;0;0;0;0;0;0;0;0;0;0;0;0;0;0;0;0;0;0;0;0;0;0;0;0;0;0;0;0;0;0;0;0;0;0;0;0;0;0;0;0;0;0;0;0;0;0;0;0;0;0;77.528;227.53;377.53;527.53;677.53;827.53;977.53;1127.5;1277.5;1197.5;1047.5;897.47;747.47;597.47;447.47;297.47;147.47;-2.5281;-152.53;-72.472;0;0;0;0;0;0;0;0;0;0;0;0;0;0;0;164.34;229.06;276.39;314.27;345.83;372.68;395.77;415.74;433.01;447.9;460.64;471.4;480.32;487.5;493.01;496.9;499.23;500;499.23;496.9;493.01;487.5;480.32;471.4;460.64;447.9;433.01;415.74;395.77;372.68;345.83;314.27;276.39;229.06;164.34;0;0;0;0;0;0;0;0;0;0;0;0;0;0;0;0;0;0;0;0;0;0;0;0;0;0;0;0;0;0;0;0;0;0;0;0;0;0;0;0;0;0;0;0;0;0;0;0;0;0;0;0;0;0;0;0;0;0;0;0;0;0;0;0;0;102.81;252.81;402.81;552.81;702.81;852.81;1002.8;1152.8;1302.8;1172.2;1022.2;872.19;722.19;572.19;422.19;272.19;122.19;-27.809;-177.81;-47.191;0;0;0;0;0;0;0;0;0;0;0;0;0;0;0;164.34;229.06;276.39;314.27;345.83;372.68;395.77;415.74;433.01;447.9;460.64;471.4;480.32;487.5;493.01;496.9;499.23;500;499.23;496.9;493.01;487.5;480.32;471.4;460.64;447.9;433.01;415.74;395.77;372.68;345.83;314.27;276.39;229.06;164.34;0;0;0;0;0;0;0;0;0;0;0;0;0;0;0;0;0;0;0;0;0;0;0;0;0;0;0;0;0;0;0;0;0;0;0;0;0;0;0;0;0;0;0;0;0;0;0;0;0;0;0;0;0;0;0;0;0;0;0;0;0;0;0;0;0;128.09;278.09;428.09;578.09;728.09;878.09;1028.1;1178.1;1296.9;1146.9;996.91;846.91;696.91;546.91;396.91;246.91;96.91;-53.09;-171.91;-21.91;0;0;0;0;0;0;0;0;0;0;0;0;0;0;0;164.34;229.06;276.39;314.27;345.83;372.68;395.77;415.74;433.01;447.9;460.64;471.4;480.32;487.5;493.01;496.9;499.23;500;499.23;496.9;493.01;487.5;480.32;471.4;460.64;447.9;433.01;415.74;395.77;372.68;345.83;314.27;276.39;229.06;164.34;0;0;0;0;0;0;0;0;0;0;0;0;0;0;0;0;0;0;0;0;0;0;0;0;0;0;0;0;0;0;0;0;0;0;0;0;0;0;0;0;0;0;0;0;0;0;0;0;0;0;0;0;0;0;0;0;0;0;0;0;0;0;0;0;3.3708;153.37;303.37;453.37;603.37;753.37;903.37;1053.4;1203.4;1271.6;1121.6;971.63;821.63;671.63;521.63;371.63;221.63;71.629;-78.371;-146.63;0;0;0;0;0;0;0;0;0;0;0;0;0;0;0;164.34;229.06;276.39;314.27;345.83;372.68;395.77;415.74;433.01;447.9;460.64;471.4;480.32;487.5;493.01;496.9;499.23;500;499.23;496.9;493.01;487.5;480.32;471.4;460.64;447.9;433.01;415.74;395.77;372.68;345.83;314.27;276.39;229.06;164.34;0;0;0;0;0;0;0;0;0;0;0;0;0;0;0;0;0;0;0;0;0;0;0;0;0;0;0;0;0;0;0;0;0;0;0;0;0;0;0;0;0;0;0;0;0;0;0;0;0;0;0;0;0;0;0;0;0;0;0;0;0;0;0;0;0;28.652;178.65;328.65;478.65;628.65;778.65;928.65;1078.7;1228.7;1246.3;1096.3;946.35;796.35;646.35;496.35;346.35;196.35;46.348;-103.65;-121.35;0;0;0;0;0;0;0;0;0;0;0;0;0;0;0;164.34;229.06;276.39;314.27;345.83;372.68;395.77;415.74;433.01;447.9;460.64;471.4;480.32;487.5;493.01;496.9;499.23;500;499.23;496.9;493.01;487.5;480.32;471.4;460.64;447.9;433.01;415.74;395.77;372.68;345.83;314.27;276.39;229.06;164.34;0;0;0;0;0;0;0;0;0;0;0;0;0;0;0;0;0;0;0;0;0;0;0;0;0;0;0;0;0;0;0;0;0;0;0;0;0;0;0;0;0;0;0;0;0;0;0;0;0;0;0;0;0;0;0;0;0;0;0;0;0;0;0;0;0;53.933;203.93;353.93;503.93;653.93;803.93;953.93;1103.9;1253.9;1221.1;1071.1;921.07;771.07;621.07;471.07;321.07;171.07;21.067;-128.93;-96.067;0;0;0;0;0;0;0;0;0;0;0;0;0;0;0;164.34;229.06;276.39;314.27;345.83;372.68;395.77;415.74;433.01;447.9;460.64;471.4;480.32;487.5;493.01;496.9;499.23;500;499.23;496.9;493.01;487.5;480.32;471.4;460.64;447.9;433.01;415.74;395.77;372.68;345.83;314.27;276.39;229.06;164.34;0;0;0;0;0;0;0;0;0;0;0;0;0;0;0;0;0;0;0;0;0;0;0;0;0;0;0;0;0;0;0;0;0;0;0;0;0;0;0;0;0;0;0;0;0;0;0;0;0;0;0;0;0;0;0;0;0;0;0;0;0;0;0;0;0;79.213;229.21;379.21;529.21;679.21;829.21;979.21;1129.2;1279.2;1195.8;1045.8;895.79;745.79;595.79;445.79;295.79;145.79;-4.2135;-154.21;-70.787;0;0;0;0;0;0;0;0;0;0;0;0;0;0;0;164.34;229.06;276.39;314.27;345.83;372.68;395.77;415.74;433.01;447.9;460.64;471.4;480.32;487.5;493.01;496.9;499.23;500;499.23;496.9;493.01;487.5;480.32;471.4;460.64;447.9;433.01;415.74;395.77;372.68;345.83;314.27;276.39;229.06;164.34;0;0;0;0;0;0;0;0;0;0;0;0;0;0;0;0;0;0;0;0;0;0;0;0;0;0;0;0;0;0;0;0;0;0;0;0;0;0;0;0;0;0;0;0;0;0;0;0;0;0;0;0;0;0;0;0;0;0;0;0;0;0;0;0;0;104.49;254.49;404.49;554.49;704.49;854.49;1004.5;1154.5;1304.5;1170.5;1020.5;870.51;720.51;570.51;420.51;270.51;120.51;-29.494;-179.49;-45.506;0;0;0;0;0;0;0;0;0;0;0;0;0;0;0;164.34;229.06;276.39;314.27;345.83;372.68;395.77;415.74;433.01;447.9;460.64;471.4;480.32;487.5;493.01;496.9;499.23;500;499.23;496.9;493.01;487.5;480.32;471.4;460.64;447.9;433.01;415.74;395.77;372.68;345.83;314.27;276.39;229.06;164.34;0;0;0;0;0;0;0;0;0;0;0;0;0;0;0;0;0;0;0;0;0;0;0;0;0;0;0;0;0;0;0;0;0;0;0;0;0;0;0;0;0;0;0;0;0;0;0;0;0;0;0;0;0;0;0;0;0;0;0;0;0;0;0;0;0;129.78;279.78;429.78;579.78;729.78;879.78;1029.8;1179.8;1295.2;1145.2;995.22;845.22;695.22;545.22;395.22;245.22;95.225;-54.775;-170.22;-20.225;0;0;0;0;0;0;0;0;0;0;0;0;0;0;0;164.34;229.06;276.39;314.27;345.83;372.68;395.77;415.74;433.01;447.9;460.64;471.4;480.32;487.5;493.01;496.9;499.23;500;499.23;496.9;493.01;487.5;480.32;471.4;460.64;447.9;433.01;415.74;395.77;372.68;345.83;314.27;276.39;229.06;164.34;0;0;0;0;0;0;0;0;0;0;0;0;0;0;0;0;0;0;0;0;0;0;0;0;0;0;0;0;0;0;0;0;0;0;0;0;0;0;0;0;0;0;0;0;0;0;0;0;0;0;0;0;0;0;0;0;0;0;0;0;0;0;0;0;5.0562;155.06;305.06;455.06;605.06;755.06;905.06;1055.1;1205.1;1269.9;1119.9;969.94;819.94;669.94;519.94;369.94;219.94;69.944;-80.056;-144.94;0;0;0;0;0;0;0;0;0;0;0;0;0;0;0;164.34;229.06;276.39;314.27;345.83;372.68;395.77;415.74;433.01;447.9;460.64;471.4;480.32;487.5;493.01;496.9;499.23;500;499.23;496.9;493.01;487.5;480.32;471.4;460.64;447.9;433.01;415.74;395.77;372.68;345.83;314.27;276.39;229.06;164.34;0;0;0;0;0;0;0;0;0;0;0;0;0;0;0;0;0;0;0;0;0;0;0;0;0;0;0;0;0;0;0;0;0;0;0;0;0;0;0;0;0;0;0;0;0;0;0;0;0;0;0;0;0;0;0;0;0;0;0;0;0;0;0;0;0;30.337;180.34;330.34;480.34;630.34;780.34;930.34;1080.3;1230.3;1244.7;1094.7;944.66;794.66;644.66;494.66;344.66;194.66;44.663;-105.34;-119.66;0;0;0;0;0;0;0;0;0;0;0;0;0;0;0;164.34;229.06;276.39;314.27;345.83;372.68;395.77;415.74;433.01;447.9;460.64;471.4;480.32;487.5;493.01;496.9;499.23;500;499.23;496.9;493.01;487.5;480.32;471.4;460.64;447.9;433.01;415.74;395.77;372.68;345.83;314.27;276.39;229.06;164.34;0;0;0;0;0;0;0;0;0;0;0;0;0;0;0;0;0;0;0;0;0;0;0;0;0;0;0;0;0;0;0;0;0;0;0;0;0;0;0;0;0;0;0;0;0;0;0;0;0;0;0;0;0;0;0;0;0;0;0;0;0;0;0;0;0;55.618;205.62;355.62;505.62;655.62;805.62;955.62;1105.6;1255.6;1219.4;1069.4;919.38;769.38;619.38;469.38;319.38;169.38;19.382;-130.62;-94.382;0;0;0;0;0;0;0;0;0;0;0;0;0;0;0;164.34;229.06;276.39;314.27;345.83;372.68;395.77;415.74;433.01;447.9;460.64;471.4;480.32;487.5;493.01;496.9;499.23;500;499.23;496.9;493.01;487.5;480.32;471.4;460.64;447.9;433.01;415.74;395.77;372.68;345.83;314.27;276.39;229.06;164.34;0;0;0;0;0;0;0;0;0;0;0;0;0;0;0;0;0;0;0;0;0;0;0;0;0;0;0;0;0;0;0;0;0;0;0;0;0;0;0;0;0;0;0;0;0;0;0;0;0;0;0;0;0;0;0;0;0;0;0;0;0;0;0;0;0;80.899;230.9;380.9;530.9;680.9;830.9;980.9;1130.9;1280.9;1194.1;1044.1;894.1;744.1;594.1;444.1;294.1;144.1;-5.8989;-155.9;-69.101;0;0;0;0;0;0;0;0;0;0;0;0;0;0;0;164.34;229.06;276.39;314.27;345.83;372.68;395.77;415.74;433.01;447.9;460.64;471.4;480.32;487.5;493.01;496.9;499.23;500;499.23;496.9;493.01;487.5;480.32;471.4;460.64;447.9;433.01;415.74;395.77;372.68;345.83;314.27;276.39;229.06;164.34;0;0;0;0;0;0;0;0;0;0;0;0;0;0;0;0;0;0;0;0;0;0;0;0;0;0;0;0;0;0;0;0;0;0;0;0;0;0;0;0;0;0;0;0;0;0;0;0;0;0;0;0;0;0;0;0;0;0;0;0;0;0;0;0;0;106.18;256.18;406.18;556.18;706.18;856.18;1006.2;1156.2;1306.2;1168.8;1018.8;868.82;718.82;568.82;418.82;268.82;118.82;-31.18;-181.18;-43.82;0;0;0;0;0;0;0;0;0;0;0;0;0;0;0;164.34;229.06;276.39;314.27;345.83;372.68;395.77;415.74;433.01;447.9;460.64;471.4;480.32;487.5;493.01;496.9;499.23;500;499.23;496.9;493.01;487.5;480.32;471.4;460.64;447.9;433.01;415.74;395.77;372.68;345.83;314.27;276.39;229.06;164.34;0;0;0;0;0;0;0;0;0;0;0;0;0;0;0;0;0;0;0;0;0;0;0;0;0;0;0;0;0;0;0;0;0;0;0;0;0;0;0;0;0;0;0;0;0;0;0;0;0;0;0;0;0;0;0;0;0;0;0;0;0;0;0;0;0;131.46;281.46;431.46;581.46;731.46;881.46;1031.5;1181.5;1293.5;1143.5;993.54;843.54;693.54;543.54;393.54;243.54;93.539;-56.461;-168.54;-18.539;0;0;0;0;0;0;0;0;0;0;0;0;0;0;0;164.34;229.06;276.39;314.27;345.83;372.68;395.77;415.74;433.01;447.9;460.64;471.4;480.32;487.5;493.01;496.9;499.23;500;499.23;496.9;493.01;487.5;480.32;471.4;460.64;447.9;433.01;415.74;395.77;372.68;345.83;314.27;276.39;229.06;164.34;0;0;0;0;0;0;0;0;0;0;0;0;0;0;0;0;0;0;0;0;0;0;0;0;0;0;0;0;0;0;0;0;0;0;0;0;0;0;0;0;0;0;0;0;0;0;0;0;0;0;0;0;0;0;0;0;0;0;0;0;0;0;0;0;6.7416;156.74;306.74;456.74;606.74;756.74;906.74;1056.7;1206.7;1268.3;1118.3;968.26;818.26;668.26;518.26;368.26;218.26;68.258;-81.742;-143.26;0;0;0;0;0;0;0;0;0;0;0;0;0;0;0;164.34;229.06;276.39;314.27;345.83;372.68;395.77;415.74;433.01;447.9;460.64;471.4;480.32;487.5;493.01;496.9;499.23;500;499.23;496.9;493.01;487.5;480.32;471.4;460.64;447.9;433.01;415.74;395.77;372.68;345.83;314.27;276.39;229.06;164.34;0;0;0;0;0;0;0;0;0;0;0;0;0;0;0;0;0;0;0;0;0;0;0;0;0;0;0;0;0;0;0;0;0;0;0;0;0;0;0;0;0;0;0;0;0;0;0;0;0;0;0;0;0;0;0;0;0;0;0;0;0;0;0;0;0;32.022;182.02;332.02;482.02;632.02;782.02;932.02;1082;1232;1243;1093;942.98;792.98;642.98;492.98;342.98;192.98;42.978;-107.02;-117.98;0;0;0;0;0;0;0;0;0;0;0;0;0;0;0;164.34;229.06;276.39;314.27;345.83;372.68;395.77;415.74;433.01;447.9;460.64;471.4;480.32;487.5;493.01;496.9;499.23;500;499.23;496.9;493.01;487.5;480.32;471.4;460.64;447.9;433.01;415.74;395.77;372.68;345.83;314.27;276.39;229.06;164.34;0;0;0;0;0;0;0;0;0;0;0;0;0;0;0;0;0;0;0;0;0;0;0;0;0;0;0;0;0;0;0;0;0;0;0;0;0;0;0;0;0;0;0;0;0;0;0;0;0;0;0;0;0;0;0;0;0;0;0;0;0;0;0;0;0;57.303;207.3;357.3;507.3;657.3;807.3;957.3;1107.3;1257.3;1217.7;1067.7;917.7;767.7;617.7;467.7;317.7;167.7;17.697;-132.3;-92.697;0;0;0;0;0;0;0;0;0;0;0;0;0;0;0;164.34;229.06;276.39;314.27;345.83;372.68;395.77;415.74;433.01;447.9;460.64;471.4;480.32;487.5;493.01;496.9;499.23;500;499.23;496.9;493.01;487.5;480.32;471.4;460.64;447.9;433.01;415.74;395.77;372.68;345.83;314.27;276.39;229.06;164.34;0;0;0;0;0;0;0;0;0;0;0;0;0;0;0;0;0;0;0;0;0;0;0;0;0;0;0;0;0;0;0;0;0;0;0;0;0;0;0;0;0;0;0;0;0;0;0;0;0;0;0;0;0;0;0;0;0;0;0;0;0;0;0;0;0;82.584;232.58;382.58;532.58;682.58;832.58;982.58;1132.6;1282.6;1192.4;1042.4;892.42;742.42;592.42;442.42;292.42;142.42;-7.5843;-157.58;-67.416;0;0;0;0;0;0;0;0;0;0;0;0;0;0;0;164.34;229.06;276.39;314.27;345.83;372.68;395.77;415.74;433.01;447.9;460.64;471.4;480.32;487.5;493.01;496.9;499.23;500;499.23;496.9;493.01;487.5;480.32;471.4;460.64;447.9;433.01;415.74;395.77;372.68;345.83;314.27;276.39;229.06;164.34;0;0;0;0;0;0;0;0;0;0;0;0;0;0;0;0;0;0;0;0;0;0;0;0;0;0;0;0;0;0;0;0;0;0;0;0;0;0;0;0;0;0;0;0;0;0;0;0;0;0;0;0;0;0;0;0;0;0;0;0;0;0;0;0;0;107.87;257.87;407.87;557.87;707.87;857.87;1007.9;1157.9;1307.9;1167.1;1017.1;867.13;717.13;567.13;417.13;267.13;117.13;-32.865;-182.87;-42.135;0;0;0;0;0;0;0;0;0;0;0;0;0;0;0;164.34;229.06;276.39;314.27;345.83;372.68;395.77;415.74;433.01;447.9;460.64;471.4;480.32;487.5;493.01;496.9;499.23;500;499.23;496.9;493.01;487.5;480.32;471.4;460.64;447.9;433.01;415.74;395.77;372.68;345.83;314.27;276.39;229.06;164.34;0;0;0;0;0;0;0;0;0;0;0;0;0;0;0;0;0;0;0;0;0;0;0;0;0;0;0;0;0;0;0;0;0;0;0;0;0;0;0;0;0;0;0;0;0;0;0;0;0;0;0;0;0;0;0;0;0;0;0;0;0;0;0;0;0;133.15;283.15;433.15;583.15;733.15;883.15;1033.1;1183.1;1291.9;1141.9;991.85;841.85;691.85;541.85;391.85;241.85;91.854;-58.146;-166.85;-16.854;0;0;0;0;0;0;0;0;0;0;0;0;0;0;0;164.34;229.06;276.39;314.27;345.83;372.68;395.77;415.74;433.01;447.9;460.64;471.4;480.32;487.5;493.01;496.9;499.23;500;499.23;496.9;493.01;487.5;480.32;471.4;460.64;447.9;433.01;415.74;395.77;372.68;345.83;314.27;276.39;229.06;164.34;0;0;0;0;0;0;0;0;0;0;0;0;0;0;0;0;0;0;0;0;0;0;0;0;0;0;0;0;0;0;0;0;0;0;0;0;0;0;0;0;0;0;0;0;0;0;0;0;0;0;0;0;0;0;0;0;0;0;0;0;0;0;0;0;8.427;158.43;308.43;458.43;608.43;758.43;908.43;1058.4;1208.4;1266.6;1116.6;966.57;816.57;666.57;516.57;366.57;216.57;66.573;-83.427;-141.57;0;0;0;0;0;0;0;0;0;0;0;0;0;0;0;164.34;229.06;276.39;314.27;345.83;372.68;395.77;415.74;433.01;447.9;460.64;471.4;480.32;487.5;493.01;496.9;499.23;500;499.23;496.9;493.01;487.5;480.32;471.4;460.64;447.9;433.01;415.74;395.77;372.68;345.83;314.27;276.39;229.06;164.34;0;0;0;0;0;0;0;0;0;0;0;0;0;0;0;0;0;0;0;0;0;0;0;0;0;0;0;0;0;0;0;0;0;0;0;0;0;0;0;0;0;0;0;0;0;0;0;0;0;0;0;0;0;0;0;0;0;0;0;0;0;0;0;0;0;33.708;183.71;333.71;483.71;633.71;783.71;933.71;1083.7;1233.7;1241.3;1091.3;941.29;791.29;641.29;491.29;341.29;191.29;41.292;-108.71;-116.29;0;0;0;0;0;0;0;0;0;0;0;0;0;0;0;164.34;229.06;276.39;314.27;345.83;372.68;395.77;415.74;433.01;447.9;460.64;471.4;480.32;487.5;493.01;496.9;499.23;500;499.23;496.9;493.01;487.5;480.32;471.4;460.64;447.9;433.01;415.74;395.77;372.68;345.83;314.27;276.39;229.06;164.34;0;0;0;0;0;0;0;0;0;0;0;0;0;0;0;0;0;0;0;0;0;0;0;0;0;0;0;0;0;0;0;0;0;0;0;0;0;0;0;0;0;0;0;0;0;0;0;0;0;0;0;0;0;0;0;0;0;0;0;0;0;0;0;0;0;58.989;208.99;358.99;508.99;658.99;808.99;958.99;1109;1259;1216;1066;916.01;766.01;616.01;466.01;316.01;166.01;16.011;-133.99;-91.011;0;0;0;0;0;0;0;0;0;0;0;0;0;0;0;164.34;229.06;276.39;314.27;345.83;372.68;395.77;415.74;433.01;447.9;460.64;471.4;480.32;487.5;493.01;496.9;499.23;500;499.23;496.9;493.01;487.5;480.32;471.4;460.64;447.9;433.01;415.74;395.77;372.68;345.83;314.27;276.39;229.06;164.34;0;0;0;0;0;0;0;0;0;0;0;0;0;0;0;0;0;0;0;0;0;0;0;0;0;0;0;0;0;0;0;0;0;0;0;0;0;0;0;0;0;0;0;0;0;0;0;0;0;0;0;0;0;0;0;0;0;0;0;0;0;0;0;0;0;84.27;234.27;384.27;534.27;684.27;834.27;984.27;1134.3;1284.3;1190.7;1040.7;890.73;740.73;590.73;440.73;290.73;140.73;-9.2697;-159.27;-65.73;0;0;0;0;0;0;0;0;0;0;0;0;0;0;0;164.34;229.06;276.39;314.27;345.83;372.68;395.77;415.74;433.01;447.9;460.64;471.4;480.32;487.5;493.01;496.9;499.23;500;499.23;496.9;493.01;487.5;480.32;471.4;460.64;447.9;433.01;415.74;395.77;372.68;345.83;314.27;276.39;229.06;164.34;0;0;0;0;0;0;0;0;0;0;0;0;0;0;0;0;0;0;0;0;0;0;0;0;0;0;0;0;0;0;0;0;0;0;0;0;0;0;0;0;0;0;0;0;0;0;0;0;0;0;0;0;0;0;0;0;0;0;0;0;0;0;0;0;0;109.55;259.55;409.55;559.55;709.55;859.55;1009.6;1159.6;1309.6;1165.4;1015.4;865.45;715.45;565.45;415.45;265.45;115.45;-34.551;-184.55;-40.449;0;0;0;0;0;0;0;0;0;0;0;0;0;0;0;164.34;229.06;276.39;314.27;345.83;372.68;395.77;415.74;433.01;447.9;460.64;471.4;480.32;487.5;493.01;496.9;499.23;500;499.23;496.9;493.01;487.5;480.32;471.4;460.64;447.9;433.01;415.74;395.77;372.68;345.83;314.27;276.39;229.06;164.34;0;0;0;0;0;0;0;0;0;0;0;0;0;0;0;0;0;0;0;0;0;0;0;0;0;0;0;0;0;0;0;0;0;0;0;0;0;0;0;0;0;0;0;0;0;0;0;0;0;0;0;0;0;0;0;0;0;0;0;0;0;0;0;0;0;134.83;284.83;434.83;584.83;734.83;884.83;1034.8;1184.8;1290.2;1140.2;990.17;840.17;690.17;540.17;390.17;240.17;90.169;-59.831;-165.17;-15.169;0;0;0;0;0;0;0;0;0;0;0;0;0;0;0;164.34;229.06;276.39;314.27;345.83;372.68;395.77;415.74;433.01;447.9;460.64;471.4;480.32;487.5;493.01;496.9;499.23;500;499.23;496.9;493.01;487.5;480.32;471.4;460.64;447.9;433.01;415.74;395.77;372.68;345.83;314.27;276.39;229.06;164.34;0;0;0;0;0;0;0;0;0;0;0;0;0;0;0;0;0;0;0;0;0;0;0;0;0;0;0;0;0;0;0;0;0;0;0;0;0;0;0;0;0;0;0;0;0;0;0;0;0;0;0;0;0;0;0;0;0;0;0;0;0;0;0;0;10.112;160.11;310.11;460.11;610.11;760.11;910.11;1060.1;1210.1;1264.9;1114.9;964.89;814.89;664.89;514.89;364.89;214.89;64.888;-85.112;-139.89;0;0;0;0;0;0;0;0;0;0;0;0;0;0;0;164.34;229.06;276.39;314.27;345.83;372.68;395.77;415.74;433.01;447.9;460.64;471.4;480.32;487.5;493.01;496.9;499.23;500;499.23;496.9;493.01;487.5;480.32;471.4;460.64;447.9;433.01;415.74;395.77;372.68;345.83;314.27;276.39;229.06;164.34;0;0;0;0;0;0;0;0;0;0;0;0;0;0;0;0;0;0;0;0;0;0;0;0;0;0;0;0;0;0;0;0;0;0;0;0;0;0;0;0;0;0;0;0;0;0;0;0;0;0;0;0;0;0;0;0;0;0;0;0;0;0;0;0;0;35.393;185.39;335.39;485.39;635.39;785.39;935.39;1085.4;1235.4;1239.6;1089.6;939.61;789.61;639.61;489.61;339.61;189.61;39.607;-110.39;-114.61;0;0;0;0;0;0;0;0;0;0;0;0;0;0;0;164.34;229.06;276.39;314.27;345.83;372.68;395.77;415.74;433.01;447.9;460.64;471.4;480.32;487.5;493.01;496.9;499.23;500;499.23;496.9;493.01;487.5;480.32;471.4;460.64;447.9;433.01;415.74;395.77;372.68;345.83;314.27;276.39;229.06;164.34;0;0;0;0;0;0;0;0;0;0;0;0;0;0;0;0;0;0;0;0;0;0;0;0;0;0;0;0;0;0;0;0;0;0;0;0;0;0;0;0;0;0;0;0;0;0;0;0;0;0;0;0;0;0;0;0;0;0;0;0;0;0;0;0;0;60.674;210.67;360.67;510.67;660.67;810.67;960.67;1110.7;1260.7;1214.3;1064.3;914.33;764.33;614.33;464.33;314.33;164.33;14.326;-135.67;-89.326;0;0;0;0;0;0;0;0;0;0;0;0;0;0;0;164.34;229.06;276.39;314.27;345.83;372.68;395.77;415.74;433.01;447.9;460.64;471.4;480.32;487.5;493.01;496.9;499.23;500;499.23;496.9;493.01;487.5;480.32;471.4;460.64;447.9;433.01;415.74;395.77;372.68;345.83;314.27;276.39;229.06;164.34;0;0;0;0;0;0;0;0;0;0;0;0;0;0;0;0;0;0;0;0;0;0;0;0;0;0;0;0;0;0;0;0;0;0;0;0;0;0;0;0;0;0;0;0;0;0;0;0;0;0;0;0;0;0;0;0;0;0;0;0;0;0;0;0;0;85.955;235.96;385.96;535.96;685.96;835.96;985.96;1136;1286;1189;1039;889.04;739.04;589.04;439.04;289.04;139.04;-10.955;-160.96;-64.045;0;0;0;0;0;0;0;0;0;0;0;0;0;0;0;164.34;229.06;276.39;314.27;345.83;372.68;395.77;415.74;433.01;447.9;460.64;471.4;480.32;487.5;493.01;496.9;499.23;500;499.23;496.9;493.01;487.5;480.32;471.4;460.64;447.9;433.01;415.74;395.77;372.68;345.83;314.27;276.39;229.06;164.34;0;0;0;0;0;0;0;0;0;0;0;0;0;0;0;0;0;0;0;0;0;0;0;0;0;0;0;0;0;0;0;0;0;0;0;0;0;0;0;0;0;0;0;0;0;0;0;0;0;0;0;0;0;0;0;0;0;0;0;0;0;0;0;0;0;111.24;261.24;411.24;561.24;711.24;861.24;1011.2;1161.2;1311.2;1163.8;1013.8;863.76;713.76;563.76;413.76;263.76;113.76;-36.236;-186.24;-38.764;0;0;0;0;0;0;0;0;0;0;0;0;0;0;0;164.34;229.06;276.39;314.27;345.83;372.68;395.77;415.74;433.01;447.9;460.64;471.4;480.32;487.5;493.01;496.9;499.23;500;499.23;496.9;493.01;487.5;480.32;471.4;460.64;447.9;433.01;415.74;395.77;372.68;345.83;314.27;276.39;229.06;164.34;0;0;0;0;0;0;0;0;0;0;0;0;0;0;0;0;0;0;0;0;0;0;0;0;0;0;0;0;0;0;0;0;0;0;0;0;0;0;0;0;0;0;0;0;0;0;0;0;0;0;0;0;0;0;0;0;0;0;0;0;0;0;0;0;0;136.52;286.52;436.52;586.52;736.52;886.52;1036.5;1186.5;1288.5;1138.5;988.48;838.48;688.48;538.48;388.48;238.48;88.483;-61.517;-163.48;-13.483;0;0;0;0;0;0;0;0;0;0;0;0;0;0;0;164.34;229.06;276.39;314.27;345.83;372.68;395.77;415.74;433.01;447.9;460.64;471.4;480.32;487.5;493.01;496.9;499.23;500;499.23;496.9;493.01;487.5;480.32;471.4;460.64;447.9;433.01;415.74;395.77;372.68;345.83;314.27;276.39;229.06;164.34;0;0;0;0;0;0;0;0;0;0;0;0;0;0;0;0;0;0;0;0;0;0;0;0;0;0;0;0;0;0;0;0;0;0;0;0;0;0;0;0;0;0;0;0;0;0;0;0;0;0;0;0;0;0;0;0;0;0;0;0;0;0;0;0;11.798;161.8;311.8;461.8;611.8;761.8;911.8;1061.8;1211.8;1263.2;1113.2;963.2;813.2;663.2;513.2;363.2;213.2;63.202;-86.798;-138.2;0;0;0;0;0;0;0;0;0;0;0;0;0;0;0;164.34;229.06;276.39;314.27;345.83;372.68;395.77;415.74;433.01;447.9;460.64;471.4;480.32;487.5;493.01;496.9;499.23;500;499.23;496.9;493.01;487.5;480.32;471.4;460.64;447.9;433.01;415.74;395.77;372.68;345.83;314.27;276.39;229.06;164.34;0;0;0;0;0;0;0;0;0;0;0;0;0;0;0;0;0;0;0;0;0;0;0;0;0;0;0;0;0;0;0;0;0;0;0;0;0;0;0;0;0;0;0;0;0;0;0;0;0;0;0;0;0;0;0;0;0;0;0;0;0;0;0;0;0;37.079;187.08;337.08;487.08;637.08;787.08;937.08;1087.1;1237.1;1237.9;1087.9;937.92;787.92;637.92;487.92;337.92;187.92;37.921;-112.08;-112.92;0;0;0;0;0;0;0;0;0;0;0;0;0;0;0;164.34;229.06;276.39;314.27;345.83;372.68;395.77;415.74;433.01;447.9;460.64;471.4;480.32;487.5;493.01;496.9;499.23;500;499.23;496.9;493.01;487.5;480.32;471.4;460.64;447.9;433.01;415.74;395.77;372.68;345.83;314.27;276.39;229.06;164.34;0;0;0;0;0;0;0;0;0;0;0;0;0;0;0;0;0;0;0;0;0;0;0;0;0;0;0;0;0;0;0;0;0;0;0;0;0;0;0;0;0;0;0;0;0;0;0;0;0;0;0;0;0;0;0;0;0;0;0;0;0;0;0;0;0;62.36;212.36;362.36;512.36;662.36;812.36;962.36;1112.4;1262.4;1212.6;1062.6;912.64;762.64;612.64;462.64;312.64;162.64;12.64;-137.36;-87.64;0;0;0;0;0;0;0;0;0;0;0;0;0;0;0;164.34;229.06;276.39;314.27;345.83;372.68;395.77;415.74;433.01;447.9;460.64;471.4;480.32;487.5;493.01;496.9;499.23;500;499.23;496.9;493.01;487.5;480.32;471.4;460.64;447.9;433.01;415.74;395.77;372.68;345.83;314.27;276.39;229.06;164.34;0;0;0;0;0;0;0;0;0;0;0;0;0;0;0;0;0;0;0;0;0;0;0;0;0;0;0;0;0;0;0;0;0;0;0;0;0;0;0;0;0;0;0;0;0;0;0;0;0;0;0;0;0;0;0;0;0;0;0;0;0;0;0;0;0;87.64;237.64;387.64;537.64;687.64;837.64;987.64;1137.6;1287.6;1187.4;1037.4;887.36;737.36;587.36;437.36;287.36;137.36;-12.64;-162.64;-62.36;0;0;0;0;0;0;0;0;0;0;0;0;0;0;0;164.34;229.06;276.39;314.27;345.83;372.68;395.77;415.74;433.01;447.9;460.64;471.4;480.32;487.5;493.01;496.9;499.23;500;499.23;496.9;493.01;487.5;480.32;471.4;460.64;447.9;433.01;415.74;395.77;372.68;345.83;314.27;276.39;229.06;164.34;0;0;0;0;0;0;0;0;0;0;0;0;0;0;0;0;0;0;0;0;0;0;0;0;0;0;0;0;0;0;0;0;0;0;0;0;0;0;0;0;0;0;0;0;0;0;0;0;0;0;0;0;0;0;0;0;0;0;0;0;0;0;0;0;0;112.92;262.92;412.92;562.92;712.92;862.92;1012.9;1162.9;1312.1;1162.1;1012.1;862.08;712.08;562.08;412.08;262.08;112.08;-37.921;-187.08;-37.079;0;0;0;0;0;0;0;0;0;0;0;0;0;0;0;164.34;229.06;276.39;314.27;345.83;372.68;395.77;415.74;433.01;447.9;460.64;471.4;480.32;487.5;493.01;496.9;499.23;500;499.23;496.9;493.01;487.5;480.32;471.4;460.64;447.9;433.01;415.74;395.77;372.68;345.83;314.27;276.39;229.06;164.34;0;0;0;0;0;0;0;0;0;0;0;0;0;0;0;0;0;0;0;0;0;0;0;0;0;0;0;0;0;0;0;0;0;0;0;0;0;0;0;0;0;0;0;0;0;0;0;0;0;0;0;0;0;0;0;0;0;0;0;0;0;0;0;0;0;138.2;288.2;438.2;588.2;738.2;888.2;1038.2;1188.2;1286.8;1136.8;986.8;836.8;686.8;536.8;386.8;236.8;86.798;-63.202;-161.8;-11.798;0;0;0;0;0;0;0;0;0;0;0;0;0;0;0;164.34;229.06;276.39;314.27;345.83;372.68;395.77;415.74;433.01;447.9;460.64;471.4;480.32;487.5;493.01;496.9;499.23;500;499.23;496.9;493.01;487.5;480.32;471.4;460.64;447.9;433.01;415.74;395.77;372.68;345.83;314.27;276.39;229.06;164.34;0;0;0;0;0;0;0;0;0;0;0;0;0;0;0;0;0;0;0;0;0;0;0;0;0;0;0;0;0;0;0;0;0;0;0;0;0;0;0;0;0;0;0;0;0;0;0;0;0;0;0;0;0;0;0;0;0;0;0;0;0;0;0;0;13.483;163.48;313.48;463.48;613.48;763.48;913.48;1063.5;1213.5;1261.5;1111.5;961.52;811.52;661.52;511.52;361.52;211.52;61.517;-88.483;-136.52;0;0;0;0;0;0;0;0;0;0;0;0;0;0;0;164.34;229.06;276.39;314.27;345.83;372.68;395.77;415.74;433.01;447.9;460.64;471.4;480.32;487.5;493.01;496.9;499.23;500;499.23;496.9;493.01;487.5;480.32;471.4;460.64;447.9;433.01;415.74;395.77;372.68;345.83;314.27;276.39;229.06;164.34;0;0;0;0;0;0;0;0;0;0;0;0;0;0;0;0;0;0;0;0;0;0;0;0;0;0;0;0;0;0;0;0;0;0;0;0;0;0;0;0;0;0;0;0;0;0;0;0;0;0;0;0;0;0;0;0;0;0;0;0;0;0;0;0;0;38.764;188.76;338.76;488.76;638.76;788.76;938.76;1088.8;1238.8;1236.2;1086.2;936.24;786.24;636.24;486.24;336.24;186.24;36.236;-113.76;-111.24;0;0;0;0;0;0;0;0;0;0;0;0;0;0;0;164.34;229.06;276.39;314.27;345.83;372.68;395.77;415.74;433.01;447.9;460.64;471.4;480.32;487.5;493.01;496.9;499.23;500;499.23;496.9;493.01;487.5;480.32;471.4;460.64;447.9;433.01;415.74;395.77;372.68;345.83;314.27;276.39;229.06;164.34;0;0;0;0;0;0;0;0;0;0;0;0;0;0;0;0;0;0;0;0;0;0;0;0;0;0;0;0;0;0;0;0;0;0;0;0;0;0;0;0;0;0;0;0;0;0;0;0;0;0;0;0;0;0;0;0;0;0;0;0;0;0;0;0;0;64.045;214.04;364.04;514.04;664.04;814.04;964.04;1114;1264;1211;1061;910.96;760.96;610.96;460.96;310.96;160.96;10.955;-139.04;-85.955;0;0;0;0;0;0;0;0;0;0;0;0;0;0;0;164.34;229.06;276.39;314.27;345.83;372.68;395.77;415.74;433.01;447.9;460.64;471.4;480.32;487.5;493.01;496.9;499.23;500;499.23;496.9;493.01;487.5;480.32;471.4;460.64;447.9;433.01;415.74;395.77;372.68;345.83;314.27;276.39;229.06;164.34;0;0;0;0;0;0;0;0;0;0;0;0;0;0;0;0;0;0;0;0;0;0;0;0;0;0;0;0;0;0;0;0;0;0;0;0;0;0;0;0;0;0;0;0;0;0;0;0;0;0;0;0;0;0;0;0;0;0;0;0;0;0;0;0;0;89.326;239.33;389.33;539.33;689.33;839.33;989.33;1139.3;1289.3;1185.7;1035.7;885.67;735.67;585.67;435.67;285.67;135.67;-14.326;-164.33;-60.674;0;0;0;0;0;0;0;0;0;0;0;0;0;0;0;164.34;229.06;276.39;314.27;345.83;372.68;395.77;415.74;433.01;447.9;460.64;471.4;480.32;487.5;493.01;496.9;499.23;500;499.23;496.9;493.01;487.5;480.32;471.4;460.64;447.9;433.01;415.74;395.77;372.68;345.83;314.27;276.39;229.06;164.34;0;0;0;0;0;0;0;0;0;0;0;0;0;0;0;0;0;0;0;0;0;0;0;0;0;0;0;0;0;0;0;0;0;0;0;0;0;0;0;0;0;0;0;0;0;0;0;0;0;0;0;0;0;0;0;0;0;0;0;0;0;0;0;0;0;114.61;264.61;414.61;564.61;714.61;864.61;1014.6;1164.6;1310.4;1160.4;1010.4;860.39;710.39;560.39;410.39;260.39;110.39;-39.607;-185.39;-35.393;0;0;0;0;0;0;0;0;0;0;0;0;0;0;0;164.34;229.06;276.39;314.27;345.83;372.68;395.77;415.74;433.01;447.9;460.64;471.4;480.32;487.5;493.01;496.9;499.23;500;499.23;496.9;493.01;487.5;480.32;471.4;460.64;447.9;433.01;415.74;395.77;372.68;345.83;314.27;276.39;229.06;164.34;0;0;0;0;0;0;0;0;0;0;0;0;0;0;0;0;0;0;0;0;0;0;0;0;0;0;0;0;0;0;0;0;0;0;0;0;0;0;0;0;0;0;0;0;0;0;0;0;0;0;0;0;0;0;0;0;0;0;0;0;0;0;0;0;0;139.89;289.89;439.89;589.89;739.89;889.89;1039.9;1189.9;1285.1;1135.1;985.11;835.11;685.11;535.11;385.11;235.11;85.112;-64.888;-160.11;-10.112;0;0;0;0;0;0;0;0;0;0;0;0;0;0;0;164.34;229.06;276.39;314.27;345.83;372.68;395.77;415.74;433.01;447.9;460.64;471.4;480.32;487.5;493.01;496.9;499.23;500;499.23;496.9;493.01;487.5;480.32;471.4;460.64;447.9;433.01;415.74;395.77;372.68;345.83;314.27;276.39;229.06;164.34;0;0;0;0;0;0;0;0;0;0;0;0;0;0;0;0;0;0;0;0;0;0;0;0;0;0;0;0;0;0;0;0;0;0;0;0;0;0;0;0;0;0;0;0;0;0;0;0;0;0;0;0;0;0;0;0;0;0;0;0;0;0;0;0;15.169;165.17;315.17;465.17;615.17;765.17;915.17;1065.2;1215.2;1259.8;1109.8;959.83;809.83;659.83;509.83;359.83;209.83;59.831;-90.169;-134.83;0;0;0;0;0;0;0;0;0;0;0;0;0;0;0;164.34;229.06;276.39;314.27;345.83;372.68;395.77;415.74;433.01;447.9;460.64;471.4;480.32;487.5;493.01;496.9;499.23;500;499.23;496.9;493.01;487.5;480.32;471.4;460.64;447.9;433.01;415.74;395.77;372.68;345.83;314.27;276.39;229.06;164.34;0;0;0;0;0;0;0;0;0;0;0;0;0;0;0;0;0;0;0;0;0;0;0;0;0;0;0;0;0;0;0;0;0;0;0;0;0;0;0;0;0;0;0;0;0;0;0;0;0;0;0;0;0;0;0;0;0;0;0;0;0;0;0;0;0;40.449;190.45;340.45;490.45;640.45;790.45;940.45;1090.4;1240.4;1234.6;1084.6;934.55;784.55;634.55;484.55;334.55;184.55;34.551;-115.45;-109.55;0;0;0;0;0;0;0;0;0;0;0;0;0;0;0;164.34;229.06;276.39;314.27;345.83;372.68;395.77;415.74;433.01;447.9;460.64;471.4;480.32;487.5;493.01;496.9;499.23;500;499.23;496.9;493.01;487.5;480.32;471.4;460.64;447.9;433.01;415.74;395.77;372.68;345.83;314.27;276.39;229.06;164.34;0;0;0;0;0;0;0;0;0;0;0;0;0;0;0;0;0;0;0;0;0;0;0;0;0;0;0;0;0;0;0;0;0;0;0;0;0;0;0;0;0;0;0;0;0;0;0;0;0;0;0;0;0;0;0;0;0;0;0;0;0;0;0;0;0;65.73;215.73;365.73;515.73;665.73;815.73;965.73;1115.7;1265.7;1209.3;1059.3;909.27;759.27;609.27;459.27;309.27;159.27;9.2697;-140.73;-84.27;0;0;0;0;0;0;0;0;0;0;0;0;0;0;0;164.34;229.06;276.39;314.27;345.83;372.68;395.77;415.74;433.01;447.9;460.64;471.4;480.32;487.5;493.01;496.9;499.23;500;499.23;496.9;493.01;487.5;480.32;471.4;460.64;447.9;433.01;415.74;395.77;372.68;345.83;314.27;276.39;229.06;164.34;0;0;0;0;0;0;0;0;0;0;0;0;0;0;0;0;0;0;0;0;0;0;0;0;0;0;0;0;0;0;0;0;0;0;0;0;0;0;0;0;0;0;0;0;0;0;0;0;0;0;0;0;0;0;0;0;0;0;0;0;0;0;0;0;0;91.011;241.01;391.01;541.01;691.01;841.01;991.01;1141;1291;1184;1034;883.99;733.99;583.99;433.99;283.99;133.99;-16.011;-166.01;-58.989;0;0;0;0;0;0;0;0;0;0;0;0;0;0;0;164.34;229.06;276.39;314.27;345.83;372.68;395.77;415.74;433.01;447.9;460.64;471.4;480.32;487.5;493.01;496.9;499.23;500;499.23;496.9;493.01;487.5;480.32;471.4;460.64;447.9;433.01;415.74;395.77;372.68;345.83;314.27;276.39;229.06;164.34;0;0;0;0;0;0;0;0;0;0;0;0;0;0;0;0;0;0;0;0;0;0;0;0;0;0;0;0;0;0;0;0;0;0;0;0;0;0;0;0;0;0;0;0;0;0;0;0;0;0;0;0;0;0;0;0;0;0;0;0;0;0;0;0;0;116.29;266.29;416.29;566.29;716.29;866.29;1016.3;1166.3;1308.7;1158.7;1008.7;858.71;708.71;558.71;408.71;258.71;108.71;-41.292;-183.71;-33.708;0;0;0;0;0;0;0;0;0;0;0;0;0;0;0;164.34;229.06;276.39;314.27;345.83;372.68;395.77;415.74;433.01;447.9;460.64;471.4;480.32;487.5;493.01;496.9;499.23;500;499.23;496.9;493.01;487.5;480.32;471.4;460.64;447.9;433.01;415.74;395.77;372.68;345.83;314.27;276.39;229.06;164.34;0;0;0;0;0;0;0;0;0;0;0;0;0;0;0;0;0;0;0;0;0;0;0;0;0;0;0;0;0;0;0;0;0;0;0;0;0;0;0;0;0;0;0;0;0;0;0;0;0;0;0;0;0;0;0;0;0;0;0;0;0;0;0;0;0;141.57;291.57;441.57;591.57;741.57;891.57;1041.6;1191.6;1283.4;1133.4;983.43;833.43;683.43;533.43;383.43;233.43;83.427;-66.573;-158.43;-8.427;0;0;0;0;0;0;0;0;0;0;0;0;0;0;0;164.34;229.06;276.39;314.27;345.83;372.68;395.77;415.74;433.01;447.9;460.64;471.4;480.32;487.5;493.01;496.9;499.23;500;499.23;496.9;493.01;487.5;480.32;471.4;460.64;447.9;433.01;415.74;395.77;372.68;345.83;314.27;276.39;229.06;164.34;0;0;0;0;0;0;0;0;0;0;0;0;0;0;0;0;0;0;0;0;0;0;0;0;0;0;0;0;0;0;0;0;0;0;0;0;0;0;0;0;0;0;0;0;0;0;0;0;0;0;0;0;0;0;0;0;0;0;0;0;0;0;0;0;16.854;166.85;316.85;466.85;616.85;766.85;916.85;1066.9;1216.9;1258.1;1108.1;958.15;808.15;658.15;508.15;358.15;208.15;58.146;-91.854;-133.15;0;0;0;0;0;0;0;0;0;0;0;0;0;0;0;164.34;229.06;276.39;314.27;345.83;372.68;395.77;415.74;433.01;447.9;460.64;471.4;480.32;487.5;493.01;496.9;499.23;500;499.23;496.9;493.01;487.5;480.32;471.4;460.64;447.9;433.01;415.74;395.77;372.68;345.83;314.27;276.39;229.06;164.34;0;0;0;0;0;0;0;0;0;0;0;0;0;0;0;0;0;0;0;0;0;0;0;0;0;0;0;0;0;0;0;0;0;0;0;0;0;0;0;0;0;0;0;0;0;0;0;0;0;0;0;0;0;0;0;0;0;0;0;0;0;0;0;0;0;42.135;192.13;342.13;492.13;642.13;792.13;942.13;1092.1;1242.1;1232.9;1082.9;932.87;782.87;632.87;482.87;332.87;182.87;32.865;-117.13;-107.87;0;0;0;0;0;0;0;0;0;0;0;0;0;0;0;164.34;229.06;276.39;314.27;345.83;372.68;395.77;415.74;433.01;447.9;460.64;471.4;480.32;487.5;493.01;496.9;499.23;500;499.23;496.9;493.01;487.5;480.32;471.4;460.64;447.9;433.01;415.74;395.77;372.68;345.83;314.27;276.39;229.06;164.34;0;0;0;0;0;0;0;0;0;0;0;0;0;0;0;0;0;0;0;0;0;0;0;0;0;0;0;0;0;0;0;0;0;0;0;0;0;0;0;0;0;0;0;0;0;0;0;0;0;0;0;0;0;0;0;0;0;0;0;0;0;0;0;0;0;67.416;217.42;367.42;517.42;667.42;817.42;967.42;1117.4;1267.4;1207.6;1057.6;907.58;757.58;607.58;457.58;307.58;157.58;7.5843;-142.42;-82.584;0;0;0;0;0;0;0;0;0;0;0;0;0;0;0;164.34;229.06;276.39;314.27;345.83;372.68;395.77;415.74;433.01;447.9;460.64;471.4;480.32;487.5;493.01;496.9;499.23;500;499.23;496.9;493.01;487.5;480.32;471.4;460.64;447.9;433.01;415.74;395.77;372.68;345.83;314.27;276.39;229.06;164.34;0;0;0;0;0;0;0;0;0;0;0;0;0;0;0;0;0;0;0;0;0;0;0;0;0;0;0;0;0;0;0;0;0;0;0;0;0;0;0;0;0;0;0;0;0;0;0;0;0;0;0;0;0;0;0;0;0;0;0;0;0;0;0;0;0;92.697;242.7;392.7;542.7;692.7;842.7;992.7;1142.7;1292.7;1182.3;1032.3;882.3;732.3;582.3;432.3;282.3;132.3;-17.697;-167.7;-57.303;0;0;0;0;0;0;0;0;0;0;0;0;0;0;0;164.34;229.06;276.39;314.27;345.83;372.68;395.77;415.74;433.01;447.9;460.64;471.4;480.32;487.5;493.01;496.9;499.23;500;499.23;496.9;493.01;487.5;480.32;471.4;460.64;447.9;433.01;415.74;395.77;372.68;345.83;314.27;276.39;229.06;164.34;0;0;0;0;0;0;0;0;0;0;0;0;0;0;0;0;0;0;0;0;0;0;0;0;0;0;0;0;0;0;0;0;0;0;0;0;0;0;0;0;0;0;0;0;0;0;0;0;0;0;0;0;0;0;0;0;0;0;0;0;0;0;0;0;0;117.98;267.98;417.98;567.98;717.98;867.98;1018;1168;1307;1157;1007;857.02;707.02;557.02;407.02;257.02;107.02;-42.978;-182.02;-32.022;0;0;0;0;0;0;0;0;0;0;0;0;0;0;0;164.34;229.06;276.39;314.27;345.83;372.68;395.77;415.74;433.01;447.9;460.64;471.4;480.32;487.5;493.01;496.9;499.23;500;499.23;496.9;493.01;487.5;480.32;471.4;460.64;447.9;433.01;415.74;395.77;372.68;345.83;314.27;276.39;229.06;164.34;0;0;0;0;0;0;0;0;0;0;0;0;0;0;0;0;0;0;0;0;0;0;0;0;0;0;0;0;0;0;0;0;0;0;0;0;0;0;0;0;0;0;0;0;0;0;0;0;0;0;0;0;0;0;0;0;0;0;0;0;0;0;0;0;0;143.26;293.26;443.26;593.26;743.26;893.26;1043.3;1193.3;1281.7;1131.7;981.74;831.74;681.74;531.74;381.74;231.74;81.742;-68.258;-156.74;-6.7416;0;0;0;0;0;0;0;0;0;0;0;0;0;0;0;164.34;229.06;276.39;314.27;345.83;372.68;395.77;415.74;433.01;447.9;460.64;471.4;480.32;487.5;493.01;496.9;499.23;500;499.23;496.9;493.01;487.5;480.32;471.4;460.64;447.9;433.01;415.74;395.77;372.68;345.83;314.27;276.39;229.06;164.34;0;0;0;0;0;0;0;0;0;0;0;0;0;0;0;0;0;0;0;0;0;0;0;0;0;0;0;0;0;0;0;0;0;0;0;0;0;0;0;0;0;0;0;0;0;0;0;0;0;0;0;0;0;0;0;0;0;0;0;0;0;0;0;0;18.539;168.54;318.54;468.54;618.54;768.54;918.54;1068.5;1218.5;1256.5;1106.5;956.46;806.46;656.46;506.46;356.46;206.46;56.461;-93.539;-131.46;0;0;0;0;0;0;0;0;0;0;0;0;0;0;0;164.34;229.06;276.39;314.27;345.83;372.68;395.77;415.74;433.01;447.9;460.64;471.4;480.32;487.5;493.01;496.9;499.23;500;499.23;496.9;493.01;487.5;480.32;471.4;460.64;447.9;433.01;415.74;395.77;372.68;345.83;314.27;276.39;229.06;164.34;0;0;0;0;0;0;0;0;0;0;0;0;0;0;0;0;0;0;0;0;0;0;0;0;0;0;0;0;0;0;0;0;0;0;0;0;0;0;0;0;0;0;0;0;0;0;0;0;0;0;0;0;0;0;0;0;0;0;0;0;0;0;0;0;0;43.82;193.82;343.82;493.82;643.82;793.82;943.82;1093.8;1243.8;1231.2;1081.2;931.18;781.18;631.18;481.18;331.18;181.18;31.18;-118.82;-106.18;0;0;0;0;0;0;0;0;0;0;0;0;0;0;0;164.34;229.06;276.39;314.27;345.83;372.68;395.77;415.74;433.01;447.9;460.64;471.4;480.32;487.5;493.01;496.9;499.23;500;499.23;496.9;493.01;487.5;480.32;471.4;460.64;447.9;433.01;415.74;395.77;372.68;345.83;314.27;276.39;229.06;164.34;0;0;0;0;0;0;0;0;0;0;0;0;0;0;0;0;0;0;0;0;0;0;0;0;0;0;0;0;0;0;0;0;0;0;0;0;0;0;0;0;0;0;0;0;0;0;0;0;0;0;0;0;0;0;0;0;0;0;0;0;0;0;0;0;0;69.101;219.1;369.1;519.1;669.1;819.1;969.1;1119.1;1269.1;1205.9;1055.9;905.9;755.9;605.9;455.9;305.9;155.9;5.8989;-144.1;-80.899;0;0;0;0;0;0;0;0;0;0;0;0;0;0;0;164.34;229.06;276.39;314.27;345.83;372.68;395.77;415.74;433.01;447.9;460.64;471.4;480.32;487.5;493.01;496.9;499.23;500;499.23;496.9;493.01;487.5;480.32;471.4;460.64;447.9;433.01;415.74;395.77;372.68;345.83;314.27;276.39;229.06;164.34;0;0;0;0;0;0;0;0;0;0;0;0;0;0;0;0;0;0;0;0;0;0;0;0;0;0;0;0;0;0;0;0;0;0;0;0;0;0;0;0;0;0;0;0;0;0;0;0;0;0;0;0;0;0;0;0;0;0;0;0;0;0;0;0;0;94.382;244.38;394.38;544.38;694.38;844.38;994.38;1144.4;1294.4;1180.6;1030.6;880.62;730.62;580.62;430.62;280.62;130.62;-19.382;-169.38;-55.618;0;0;0;0;0;0;0;0;0;0;0;0;0;0;0;164.34;229.06;276.39;314.27;345.83;372.68;395.77;415.74;433.01;447.9;460.64;471.4;480.32;487.5;493.01;496.9;499.23;500;499.23;496.9;493.01;487.5;480.32;471.4;460.64;447.9;433.01;415.74;395.77;372.68;345.83;314.27;276.39;229.06;164.34;0;0;0;0;0;0;0;0;0;0;0;0;0;0;0;0;0;0;0;0;0;0;0;0;0;0;0;0;0;0;0;0;0;0;0;0;0;0;0;0;0;0;0;0;0;0;0;0;0;0;0;0;0;0;0;0;0;0;0;0;0;0;0;0;0;119.66;269.66;419.66;569.66;719.66;869.66;1019.7;1169.7;1305.3;1155.3;1005.3;855.34;705.34;555.34;405.34;255.34;105.34;-44.663;-180.34;-30.337;0;0;0;0;0;0;0;0;0;0;0;0;0;0;0;164.34;229.06;276.39;314.27;345.83;372.68;395.77;415.74;433.01;447.9;460.64;471.4;480.32;487.5;493.01;496.9;499.23;500;499.23;496.9;493.01;487.5;480.32;471.4;460.64;447.9;433.01;415.74;395.77;372.68;345.83;314.27;276.39;229.06;164.34;0;0;0;0;0;0;0;0;0;0;0;0;0;0;0;0;0;0;0;0;0;0;0;0;0;0;0;0;0;0;0;0;0;0;0;0;0;0;0;0;0;0;0;0;0;0;0;0;0;0;0;0;0;0;0;0;0;0;0;0;0;0;0;0;0;144.94;294.94;444.94;594.94;744.94;894.94;1044.9;1194.9;1280.1;1130.1;980.06;830.06;680.06;530.06;380.06;230.06;80.056;-69.944;-155.06;-5.0562;0;0;0;0;0;0;0;0;0;0;0;0;0;0;0;164.34;229.06;276.39;314.27;345.83;372.68;395.77;415.74;433.01;447.9;460.64;471.4;480.32;487.5;493.01;496.9;499.23;500;499.23;496.9;493.01;487.5;480.32;471.4;460.64;447.9;433.01;415.74;395.77;372.68;345.83;314.27;276.39;229.06;164.34;0;0;0;0;0;0;0;0;0;0;0;0;0;0;0;0;0;0;0;0;0;0;0;0;0;0;0;0;0;0;0;0;0;0;0;0;0;0;0;0;0;0;0;0;0;0;0;0;0;0;0;0;0;0;0;0;0;0;0;0;0;0;0;0;20.225;170.22;320.22;470.22;620.22;770.22;920.22;1070.2;1220.2;1254.8;1104.8;954.78;804.78;654.78;504.78;354.78;204.78;54.775;-95.225;-129.78;0;0;0;0;0;0;0;0;0;0;0;0;0;0;0;164.34;229.06;276.39;314.27;345.83;372.68;395.77;415.74;433.01;447.9;460.64;471.4;480.32;487.5;493.01;496.9;499.23;500;499.23;496.9;493.01;487.5;480.32;471.4;460.64;447.9;433.01;415.74;395.77;372.68;345.83;314.27;276.39;229.06;164.34;0;0;0;0;0;0;0;0;0;0;0;0;0;0;0;0;0;0;0;0;0;0;0;0;0;0;0;0;0;0;0;0;0;0;0;0;0;0;0;0;0;0;0;0;0;0;0;0;0;0;0;0;0;0;0;0;0;0;0;0;0;0;0;0;0;45.506;195.51;345.51;495.51;645.51;795.51;945.51;1095.5;1245.5;1229.5;1079.5;929.49;779.49;629.49;479.49;329.49;179.49;29.494;-120.51;-104.49;0;0;0;0;0;0;0;0;0;0;0;0;0;0;0;164.34;229.06;276.39;314.27;345.83;372.68;395.77;415.74;433.01;447.9;460.64;471.4;480.32;487.5;493.01;496.9;499.23;500;499.23;496.9;493.01;487.5;480.32;471.4;460.64;447.9;433.01;415.74;395.77;372.68;345.83;314.27;276.39;229.06;164.34;0;0;0;0;0;0;0;0;0;0;0;0;0;0;0;0;0;0;0;0;0;0;0;0;0;0;0;0;0;0;0;0;0;0;0;0;0;0;0;0;0;0;0;0;0;0;0;0;0;0;0;0;0;0;0;0;0;0;0;0;0;0;0;0;0;70.787;220.79;370.79;520.79;670.79;820.79;970.79;1120.8;1270.8;1204.2;1054.2;904.21;754.21;604.21;454.21;304.21;154.21;4.2135;-145.79;-79.213;0;0;0;0;0;0;0;0;0;0;0;0;0;0;0;164.34;229.06;276.39;314.27;345.83;372.68;395.77;415.74;433.01;447.9;460.64;471.4;480.32;487.5;493.01;496.9;499.23;500;499.23;496.9;493.01;487.5;480.32;471.4;460.64;447.9;433.01;415.74;395.77;372.68;345.83;314.27;276.39;229.06;164.34;0;0;0;0;0;0;0;0;0;0;0;0;0;0;0;0;0;0;0;0;0;0;0;0;0;0;0;0;0;0;0;0;0;0;0;0;0;0;0;0;0;0;0;0;0;0;0;0;0;0;0;0;0;0;0;0;0;0;0;0;0;0;0;0;0;96.067;246.07;396.07;546.07;696.07;846.07;996.07;1146.1;1296.1;1178.9;1028.9;878.93;728.93;578.93;428.93;278.93;128.93;-21.067;-171.07;-53.933;0;0;0;0;0;0;0;0;0;0;0;0;0;0;0;164.34;229.06;276.39;314.27;345.83;372.68;395.77;415.74;433.01;447.9;460.64;471.4;480.32;487.5;493.01;496.9;499.23;500;499.23;496.9;493.01;487.5;480.32;471.4;460.64;447.9;433.01;415.74;395.77;372.68;345.83;314.27;276.39;229.06;164.34;0;0;0;0;0;0;0;0;0;0;0;0;0;0;0;0;0;0;0;0;0;0;0;0;0;0;0;0;0;0;0;0;0;0;0;0;0;0;0;0;0;0;0;0;0;0;0;0;0;0;0;0;0;0;0;0;0;0;0;0;0;0;0;0;0;121.35;271.35;421.35;571.35;721.35;871.35;1021.3;1171.3;1303.7;1153.7;1003.7;853.65;703.65;553.65;403.65;253.65;103.65;-46.348;-178.65;-28.652;0;0;0;0;0;0;0;0;0;0;0;0;0;0;0;164.34;229.06;276.39;314.27;345.83;372.68;395.77;415.74;433.01;447.9;460.64;471.4;480.32;487.5;493.01;496.9;499.23;500;499.23;496.9;493.01;487.5;480.32;471.4;460.64;447.9;433.01;415.74;395.77;372.68;345.83;314.27;276.39;229.06;164.34;0;0;0;0;0;0;0;0;0;0;0;0;0;0;0;0;0;0;0;0;0;0;0;0;0;0;0;0;0;0;0;0;0;0;0;0;0;0;0;0;0;0;0;0;0;0;0;0;0;0;0;0;0;0;0;0;0;0;0;0;0;0;0;0;0;146.63;296.63;446.63;596.63;746.63;896.63;1046.6;1196.6;1278.4;1128.4;978.37;828.37;678.37;528.37;378.37;228.37;78.371;-71.629;-153.37;-3.3708;0;0;0;0;0;0;0;0;0;0;0;0;0;0;0;164.34;229.06;276.39;314.27;345.83;372.68;395.77;415.74;433.01;447.9;460.64;471.4;480.32;487.5;493.01;496.9;499.23;500;499.23;496.9;493.01;487.5;480.32;471.4;460.64;447.9;433.01;415.74;395.77;372.68;345.83;314.27;276.39;229.06;164.34;0;0;0;0;0;0;0;0;0;0;0;0;0;0;0;0;0;0;0;0;0;0;0;0;0;0;0;0;0;0;0;0;0;0;0;0;0;0;0;0;0;0;0;0;0;0;0;0;0;0;0;0;0;0;0;0;0;0;0;0;0;0;0;0;21.91;171.91;321.91;471.91;621.91;771.91;921.91;1071.9;1221.9;1253.1;1103.1;953.09;803.09;653.09;503.09;353.09;203.09;53.09;-96.91;-128.09;0;0;0;0;0;0;0;0;0;0;0;0;0;0;0;164.34;229.06;276.39;314.27;345.83;372.68;395.77;415.74;433.01;447.9;460.64;471.4;480.32;487.5;493.01;496.9;499.23;500;499.23;496.9;493.01;487.5;480.32;471.4;460.64;447.9;433.01;415.74;395.77;372.68;345.83;314.27;276.39;229.06;164.34;0;0;0;0;0;0;0;0;0;0;0;0;0;0;0;0;0;0;0;0;0;0;0;0;0;0;0;0;0;0;0;0;0;0;0;0;0;0;0;0;0;0;0;0;0;0;0;0;0;0;0;0;0;0;0;0;0;0;0;0;0;0;0;0;0;47.191;197.19;347.19;497.19;647.19;797.19;947.19;1097.2;1247.2;1227.8;1077.8;927.81;777.81;627.81;477.81;327.81;177.81;27.809;-122.19;-102.81;0;0;0;0;0;0;0;0;0;0;0;0;0;0;0;164.34;229.06;276.39;314.27;345.83;372.68;395.77;415.74;433.01;447.9;460.64;471.4;480.32;487.5;493.01;496.9;499.23;500;499.23;496.9;493.01;487.5;480.32;471.4;460.64;447.9;433.01;415.74;395.77;372.68;345.83;314.27;276.39;229.06;164.34;0;0;0;0;0;0;0;0;0;0;0;0;0;0;0;0;0;0;0;0;0;0;0;0;0;0;0;0;0;0;0;0;0;0;0;0;0;0;0;0;0;0;0;0;0;0;0;0;0;0;0;0;0;0;0;0;0;0;0;0;0;0;0;0;0;72.472;222.47;372.47;522.47;672.47;822.47;972.47;1122.5;1272.5;1202.5;1052.5;902.53;752.53;602.53;452.53;302.53;152.53;2.5281;-147.47;-77.528;0;0;0;0;0;0;0;0;0;0;0;0;0;0;0;164.34;229.06;276.39;314.27;345.83;372.68;395.77;415.74;433.01;447.9;460.64;471.4;480.32;487.5;493.01;496.9;499.23;500;499.23;496.9;493.01;487.5;480.32;471.4;460.64;447.9;433.01;415.74;395.77;372.68;345.83;314.27;276.39;229.06;164.34;0;0;0;0;0;0;0;0;0;0;0;0;0;0;0;0;0;0;0;0;0;0;0;0;0;0;0;0;0;0;0;0;0;0;0;0;0;0;0;0;0;0;0;0;0;0;0;0;0;0;0;0;0;0;0;0;0;0;0;0;0;0;0;0;0;97.753;247.75;397.75;547.75;697.75;847.75;997.75;1147.8;1297.8;1177.2;1027.2;877.25;727.25;577.25;427.25;277.25;127.25;-22.753;-172.75;-52.247;0;0;0;0;0;0;0;0;0;0;0;0;0;0;0;164.34;229.06;276.39;314.27;345.83;372.68;395.77;415.74;433.01;447.9;460.64;471.4;480.32;487.5;493.01;496.9;499.23;500;499.23;496.9;493.01;487.5;480.32;471.4;460.64;447.9;433.01;415.74;395.77;372.68;345.83;314.27;276.39;229.06;164.34;0;0;0;0;0;0;0;0;0;0;0;0;0;0;0;0;0;0;0;0;0;0;0;0;0;0;0;0;0;0;0;0;0;0;0;0;0;0;0;0;0;0;0;0;0;0;0;0;0;0;0;0;0;0;0;0;0;0;0;0;0;0;0;0;0;123.03;273.03;423.03;573.03;723.03;873.03;1023;1173;1302;1152;1002;851.97;701.97;551.97;401.97;251.97;101.97;-48.034;-176.97;-26.966;0;0;0;0;0;0;0;0;0;0;0;0;0;0;0;164.34;229.06;276.39;314.27;345.83;372.68;395.77;415.74;433.01;447.9;460.64;471.4;480.32;487.5;493.01;496.9;499.23;500;499.23;496.9;493.01;487.5;480.32;471.4;460.64;447.9;433.01;415.74;395.77;372.68;345.83;314.27;276.39;229.06;164.34;0;0;0;0;0;0;0;0;0;0;0;0;0;0;0;0;0;0;0;0;0;0;0;0;0;0;0;0;0;0;0;0;0;0;0;0;0;0;0;0;0;0;0;0;0;0;0;0;0;0;0;0;0;0;0;0;0;0;0;0;0;0;0;0;0;148.31;298.31;448.31;598.31;748.31;898.31;1048.3;1198.3;1276.7;1126.7;976.69;826.69;676.69;526.69;376.69;226.69;76.685;-73.315;-151.69;-1.6854;0;0;0;0;0;0;0;0;0;0;0;0;0;0;0;164.34;229.06;276.39;314.27;345.83;372.68;395.77;415.74;433.01;447.9;460.64;471.4;480.32;487.5;493.01;496.9;499.23;500;499.23;496.9;493.01;487.5;480.32;471.4;460.64;447.9;433.01;415.74;395.77;372.68;345.83;314.27;276.39;229.06;164.34;0;0;0;0;0;0;0;0;0;0;0;0;0;0;0;0;0;0;0;0;0;0;0;0;0;0;0;0;0;0;0;0;0;0;0;0;0;0;0;0;0;0;0;0;0;0;0;0;0;0;0;0;0;0;0;0;0;0;0;0;0;0;0;0;23.596;173.6;323.6;473.6;623.6;773.6;923.6;1073.6;1223.6;1251.4;1101.4;951.4;801.4;651.4;501.4;351.4;201.4;51.404;-98.596;-126.4;0;0;0;0;0;0;0;0;0;0;0;0;0;0;0;164.34;229.06;276.39;314.27;345.83;372.68;395.77;415.74;433.01;447.9;460.64;471.4;480.32;487.5;493.01;496.9;499.23;500;499.23;496.9;493.01;487.5;480.32;471.4;460.64;447.9;433.01;415.74;395.77;372.68;345.83;314.27;276.39;229.06;164.34;0;0;0;0;0;0;0;0;0;0;0;0;0;0;0;0;0;0;0;0;0;0;0;0;0;0;0;0;0;0;0;0;0;0;0;0;0;0;0;0;0;0;0;0;0;0;0;0;0;0;0;0;0;0;0;0;0;0;0;0;0;0;0;0;0;48.876;198.88;348.88;498.88;648.88;798.88;948.88;1098.9;1248.9;1226.1;1076.1;926.12;776.12;626.12;476.12;326.12;176.12;26.124;-123.88;-101.12;0;0;0;0;0;0;0;0;0;0;0;0;0;0;0;164.34;229.06;276.39;314.27;345.83;372.68;395.77;415.74;433.01;447.9;460.64;471.4;480.32;487.5;493.01;496.9;499.23;500;499.23;496.9;493.01;487.5;480.32;471.4;460.64;447.9;433.01;415.74;395.77;372.68;345.83;314.27;276.39;229.06;164.34;0;0;0;0;0;0;0;0;0;0;0;0;0;0;0;0;0;0;0;0;0;0;0;0;0;0;0;0;0;0;0;0;0;0;0;0;0;0;0;0;0;0;0;0;0;0;0;0;0;0;0;0;0;0;0;0;0;0;0;0;0;0;0;0;0;74.157;224.16;374.16;524.16;674.16;824.16;974.16;1124.2;1274.2;1200.8;1050.8;900.84;750.84;600.84;450.84;300.84;150.84;0.8427;-149.16;-75.843;0;0;0;0;0;0;0;0;0;0;0;0;0;0;0;164.34;229.06;276.39;314.27;345.83;372.68;395.77;415.74;433.01;447.9;460.64;471.4;480.32;487.5;493.01;496.9;499.23;500;499.23;496.9;493.01;487.5;480.32;471.4;460.64;447.9;433.01;415.74;395.77;372.68;345.83;314.27;276.39;229.06;164.34;0;0;0;0;0;0;0;0;0;0;0;0;0;0;0;0;0;0;0;0;0;0;0;0;0;0;0;0;0;0;0;0;0;0;0;0;0;0;0;0;0;0;0;0;0;0;0;0;0;0;0;0;0;0;0;0;0;0;0;0;0;0;0;0;0;99.438;249.44;399.44;549.44;699.44;849.44;999.44;1149.4;1299.4;1175.6;1025.6;875.56;725.56;575.56;425.56;275.56;125.56;-24.438;-174.44;-50.562;0;0;0;0;0;0;0;0;0;0;0;0;0;0;0;164.34;229.06;276.39;314.27;345.83;372.68;395.77;415.74;433.01;447.9;460.64;471.4;480.32;487.5;493.01;496.9;499.23;500;499.23;496.9;493.01;487.5;480.32;471.4;460.64;447.9;433.01;415.74;395.77;372.68;345.83;314.27;276.39;229.06;164.34;0;0;0;0;0;0;0;0;0;0;0;0;0;0;0;0;0;0;0;0;0;0;0;0;0;0;0;0;0;0;0;0;0;0;0;0;0;0;0;0;0;0;0;0;0;0;0;0;0;0;0;0;0;0;0;0;0;0;0;0;0;0;0;0;0;124.72;274.72;424.72;574.72;724.72;874.72;1024.7;1174.7;1300.3;1150.3;1000.3;850.28;700.28;550.28;400.28;250.28;100.28;-49.719;-175.28;-25.281;0;0;0;0;0;0;0;0;0;0;0;0;0;0;0;164.34;229.06;276.39;314.27;345.83;372.68;395.77;415.74;433.01;447.9;460.64;471.4;480.32;487.5;493.01;496.9;499.23;500;499.23;496.9;493.01;487.5;480.32;471.4;460.64;447.9;433.01;415.74;395.77;372.68;345.83;314.27;276.39;229.06;164.34;0;0;0;0;0;0;0;0;0;0;0;0;0;0;0;0;0;0;0;0;0;0;0;0;0;0;0;0;0;0;0;0;0;0;0;0;0;0;0;0;0;0;0;0;0;0;0;0;0;0;0;0;0;0;0;0;0;0;0;0;0;0;0;0;1.8161e-08;150;300;450;600;750;900;1050;1200;1275;1125;975;825;675;525;375;225;75;-75;-150;0;0;0;0;0;0;0;0;0;0;0;0;0;0;0;164.34;229.06;276.39;314.27;345.83;372.68;395.77;415.74;433.01;447.9;460.64;471.4;480.32;487.5;493.01;496.9;499.23;500;499.23;496.9;493.01;487.5;480.32;471.4;460.64;447.9;433.01;415.74;395.77;372.68;345.83;314.27;276.39;229.06;164.34;0;0;0;0;0;0;0;0;0;0;0;0;0;0;0;0;0;0;0;0;0;0;0;0;0;0;0;0;0;0;0;0;0;0;0;0;0;0;0;0;0;0;0;0;0;0;0;0;0;0;0;0;0;0;0;0;0;0;0;0;0;0;0;0;0;25.281;175.28;325.28;475.28;625.28;775.28;925.28;1075.3;1225.3;1249.7;1099.7;949.72;799.72;649.72;499.72;349.72;199.72;49.719;-100.28;-124.72;0;0;0;0;0;0;0;0;0;0;0;0;0;0;0;164.34;229.06;276.39;314.27;345.83;372.68;395.77;415.74;433.01;447.9;460.64;471.4;480.32;487.5;493.01;496.9;499.23;500;499.23;496.9;493.01;487.5;480.32;471.4;460.64;447.9;433.01;415.74;395.77;372.68;345.83;314.27;276.39;229.06;164.34;0;0;0;0;0;0;0;0;0;0;0;0;0;0;0;0;0;0;0;0;0;0;0;0;0;0;0;0;0;0;0;0;0;0;0;0;0;0;0;0;0;0;0;0;0;0;0;0;0;0;0;0;0;0;0;0;0;0;0;0;0;0;0;0;0;50.562;200.56;350.56;500.56;650.56;800.56;950.56;1100.6;1250.6;1224.4;1074.4;924.44;774.44;624.44;474.44;324.44;174.44;24.438;-125.56;-99.438;0;0;0;0;0;0;0;0;0;0;0;0;0;0;0;164.34;229.06;276.39;314.27;345.83;372.68;395.77;415.74;433.01;447.9;460.64;471.4;480.32;487.5;493.01;496.9;499.23;500;499.23;496.9;493.01;487.5;480.32;471.4;460.64;447.9;433.01;415.74;395.77;372.68;345.83;314.27;276.39;229.06;164.34;0;0;0;0;0;0;0;0;0;0;0;0;0;0;0;0;0;0;0;0;0;0;0;0;0;0;0;0;0;0;0;0;0;0;0;0;0;0;0;0;0;0;0;0;0;0;0;0;0;0;0;0;0;0;0;0;0;0;0;0;0;0;0;0;0;75.843;225.84;375.84;525.84;675.84;825.84;975.84;1125.8;1275.8;1199.2;1049.2;899.16;749.16;599.16;449.16;299.16;149.16;-0.8427;-150.84;-74.157;0;0;0;0;0;0;0;0;0;0;0;0;0;0;0;164.34;229.06;276.39;314.27;345.83;372.68;395.77;415.74;433.01;447.9;460.64;471.4;480.32;487.5;493.01;496.9;499.23;500;499.23;496.9;493.01;487.5;480.32;471.4;460.64;447.9;433.01;415.74;395.77;372.68;345.83;314.27;276.39;229.06;164.34;0;0;0;0;0;0;0;0;0;0;0;0;0;0;0;0;0;0;0;0;0;0;0;0;0;0;0;0;0;0;0;0;0;0;0;0;0;0;0;0;0;0;0;0;0;0;0;0;0;0;0;0;0;0;0;0;0;0;0;0;0;0;0;0;0;101.12;251.12;401.12;551.12;701.12;851.12;1001.1;1151.1;1301.1;1173.9;1023.9;873.88;723.88;573.88;423.88;273.88;123.88;-26.124;-176.12;-48.876;0;0;0;0;0;0;0;0;0;0;0;0;0;0;0;164.34;229.06;276.39;314.27;345.83;372.68;395.77;415.74;433.01;447.9;460.64;471.4;480.32;487.5;493.01;496.9;499.23;500;499.23;496.9;493.01;487.5;480.32;471.4;460.64;447.9;433.01;415.74;395.77;372.68;345.83;314.27;276.39;229.06;164.34;0;0;0;0;0;0;0;0;0;0;0;0;0;0;0;0;0;0;0;0;0;0;0;0;0;0;0;0;0;0;0;0;0;0;0;0;0;0;0;0;0;0;0;0;0;0;0;0;0;0;0;0;0;0;0;0;0;0;0;0;0;0;0;0;0;126.4;276.4;426.4;576.4;726.4;876.4;1026.4;1176.4;1298.6;1148.6;998.6;848.6;698.6;548.6;398.6;248.6;98.596;-51.404;-173.6;-23.596;0;0;0;0;0;0;0;0;0;0;0;0;0;0;0;164.34;229.06;276.39;314.27;345.83;372.68;395.77;415.74;433.01;447.9;460.64;471.4;480.32;487.5;493.01;496.9;499.23;500;499.23;496.9;493.01;487.5;480.32;471.4;460.64;447.9;433.01;415.74;395.77;372.68;345.83;314.27;276.39;229.06;164.34;0;0;0;0;0;0;0;0;0;0;0;0;0;0;0;0;0;0;0;0;0;0;0;0;0;0;0;0;0;0;0;0;0;0;0;0;0;0;0;0;0;0;0;0;0;0;0;0;0;0;0;0;0;0;0;0;0;0;0;0;0;0;0;0;1.6854;151.69;301.69;451.69;601.69;751.69;901.69;1051.7;1201.7;1273.3;1123.3;973.31;823.31;673.31;523.31;373.31;223.31;73.315;-76.685;-148.31;0;0;0;0;0;0;0;0;0;0;0;0;0;0;0;164.34;229.06;276.39;314.27;345.83;372.68;395.77;415.74;433.01;447.9;460.64;471.4;480.32;487.5;493.01;496.9;499.23;500;499.23;496.9;493.01;487.5;480.32;471.4;460.64;447.9;433.01;415.74;395.77;372.68;345.83;314.27;276.39;229.06;164.34;0;0;0;0;0;0;0;0;0;0;0;0;0;0;0;0;0;0;0;0;0;0;0;0;0;0;0;0;0;0;0;0;0;0;0;0;0;0;0;0;0;0;0;0;0;0;0;0;0;0;0;0;0;0;0;0;0;0;0;0;0;0;0;0;0;26.966;176.97;326.97;476.97;626.97;776.97;926.97;1077;1227;1248;1098;948.03;798.03;648.03;498.03;348.03;198.03;48.034;-101.97;-123.03;0;0;0;0;0;0;0;0;0;0;0;0;0;0;0;164.34;229.06;276.39;314.27;345.83;372.68;395.77;415.74;433.01;447.9;460.64;471.4;480.32;487.5;493.01;496.9;499.23;500;499.23;496.9;493.01;487.5;480.32;471.4;460.64;447.9;433.01;415.74;395.77;372.68;345.83;314.27;276.39;229.06;164.34;0;0;0;0;0;0;0;0;0;0;0;0;0;0;0;0;0;0;0;0;0;0;0;0;0;0;0;0;0;0;0;0;0;0;0;0;0;0;0;0;0;0;0;0;0;0;0;0;0;0;0;0;0;0;0;0;0;0;0;0;0;0;0;0;0;52.247;202.25;352.25;502.25;652.25;802.25;952.25;1102.2;1252.2;1222.8;1072.8;922.75;772.75;622.75;472.75;322.75;172.75;22.753;-127.25;-97.753;0;0;0;0;0;0;0;0;0;0;0;0;0;0;0;164.34;229.06;276.39;314.27;345.83;372.68;395.77;415.74;433.01;447.9;460.64;471.4;480.32;487.5;493.01;496.9;499.23;500;499.23;496.9;493.01;487.5;480.32;471.4;460.64;447.9;433.01;415.74;395.77;372.68;345.83;314.27;276.39;229.06;164.34;0;0;0;0;0;0;0;0;0;0;0;0;0;0;0;0;0;0;0;0;0;0;0;0;0;0;0;0;0;0;0;0;0;0;0;0;0;0;0;0;0;0;0;0;0;0;0;0;0;0;0;0;0;0;0;0;0;0;0;0;0;0;0;0;0;77.528;227.53;377.53;527.53;677.53;827.53;977.53;1127.5;1277.5;1197.5;1047.5;897.47;747.47;597.47;447.47;297.47;147.47;-2.5281;-152.53;-72.472;0;0;0;0;0;0;0;0;0;0;0;0;0;0;0;164.34;229.06;276.39;314.27;345.83;372.68;395.77;415.74;433.01;447.9;460.64;471.4;480.32;487.5;493.01;496.9;499.23;500;499.23;496.9;493.01;487.5;480.32;471.4;460.64;447.9;433.01;415.74;395.77;372.68;345.83;314.27;276.39;229.06;164.34;0;0;0;0;0;0;0;0;0;0;0;0;0;0;0;0;0;0;0;0;0;0;0;0;0;0;0;0;0;0;0;0;0;0;0;0;0;0;0;0;0;0;0;0;0;0;0;0;0;0;0;0;0;0;0;0;0;0;0;0;0;0;0;0;0;102.81;252.81;402.81;552.81;702.81;852.81;1002.8;1152.8;1302.8;1172.2;1022.2;872.19;722.19;572.19;422.19;272.19;122.19;-27.809;-177.81;-47.191;0;0;0;0;0;0;0;0;0;0;0;0;0;0;0;164.34;229.06;276.39;314.27;345.83;372.68;395.77;415.74;433.01;447.9;460.64;471.4;480.32;487.5;493.01;496.9;499.23;500;499.23;496.9;493.01;487.5;480.32;471.4;460.64;447.9;433.01;415.74;395.77;372.68;345.83;314.27;276.39;229.06;164.34;0;0;0;0;0;0;0;0;0;0;0;0;0;0;0;0;0;0;0;0;0;0;0;0;0;0;0;0;0;0;0;0;0;0;0;0;0;0;0;0;0;0;0;0;0;0;0;0;0;0;0;0;0;0;0;0;0;0;0;0;0;0;0;0;0;128.09;278.09;428.09;578.09;728.09;878.09;1028.1;1178.1;1296.9;1146.9;996.91;846.91;696.91;546.91;396.91;246.91;96.91;-53.09;-171.91;-21.91;0;0;0;0;0;0;0;0;0;0;0;0;0;0;0;164.34;229.06;276.39;314.27;345.83;372.68;395.77;415.74;433.01;447.9;460.64;471.4;480.32;487.5;493.01;496.9;499.23;500;499.23;496.9;493.01;487.5;480.32;471.4;460.64;447.9;433.01;415.74;395.77;372.68;345.83;314.27;276.39;229.06;164.34;0;0;0;0;0;0;0;0;0;0;0;0;0;0;0;0;0;0;0;0;0;0;0;0;0;0;0;0;0;0;0;0;0;0;0;0;0;0;0;0;0;0;0;0;0;0;0;0;0;0;0;0;0;0;0;0;0;0;0;0;0;0;0;0;3.3708;153.37;303.37;453.37;603.37;753.37;903.37;1053.4;1203.4;1271.6;1121.6;971.63;821.63;671.63;521.63;371.63;221.63;71.629;-78.371;-146.63;0;0;0;0;0;0;0;0;0;0;0;0;0;0;0;164.34;229.06;276.39;314.27;345.83;372.68;395.77;415.74;433.01;447.9;460.64;471.4;480.32;487.5;493.01;496.9;499.23;500;499.23;496.9;493.01;487.5;480.32;471.4;460.64;447.9;433.01;415.74;395.77;372.68;345.83;314.27;276.39;229.06;164.34;0;0;0;0;0;0;0;0;0;0;0;0;0;0;0;0;0;0;0;0;0;0;0;0;0;0;0;0;0;0;0;0;0;0;0;0;0;0;0;0;0;0;0;0;0;0;0;0;0;0;0;0;0;0;0;0;0;0;0;0;0;0;0;0;0;28.652;178.65;328.65;478.65;628.65;778.65;928.65;1078.7;1228.7;1246.3;1096.3;946.35;796.35;646.35;496.35;346.35;196.35;46.348;-103.65;-121.35;0;0;0;0;0;0;0;0;0;0;0;0;0;0;0;164.34;229.06;276.39;314.27;345.83;372.68;395.77;415.74;433.01;447.9;460.64;471.4;480.32;487.5;493.01;496.9;499.23;500;499.23;496.9;493.01;487.5;480.32;471.4;460.64;447.9;433.01;415.74;395.77;372.68;345.83;314.27;276.39;229.06;164.34;0;0;0;0;0;0;0;0;0;0;0;0;0;0;0;0;0;0;0;0;0;0;0;0;0;0;0;0;0;0;0;0;0;0;0;0;0;0;0;0;0;0;0;0;0;0;0;0;0;0;0;0;0;0;0;0;0;0;0;0;0;0;0;0;0;53.933;203.93;353.93;503.93;653.93;803.93;953.93;1103.9;1253.9;1221.1;1071.1;921.07;771.07;621.07;471.07;321.07;171.07;21.067;-128.93;-96.067;0;0;0;0;0;0;0;0;0;0;0;0;0;0;0;164.34;229.06;276.39;314.27;345.83;372.68;395.77;415.74;433.01;447.9;460.64;471.4;480.32;487.5;493.01;496.9;499.23;500;499.23;496.9;493.01;487.5;480.32;471.4;460.64;447.9;433.01;415.74;395.77;372.68;345.83;314.27;276.39;229.06;164.34;0;0;0;0;0;0;0;0;0;0;0;0;0;0;0;0;0;0;0;0;0;0;0;0;0;0;0;0;0;0;0;0;0;0;0;0;0;0;0;0;0;0;0;0;0;0;0;0;0;0;0;0;0;0;0;0;0;0;0;0;0;0;0;0;0;79.213;229.21;379.21;529.21;679.21;829.21;979.21;1129.2;1279.2;1195.8;1045.8;895.79;745.79;595.79;445.79;295.79;145.79;-4.2135;-154.21;-70.787;0;0;0;0;0;0;0;0;0;0;0;0;0;0;0;164.34;229.06;276.39;314.27;345.83;372.68;395.77;415.74;433.01;447.9;460.64;471.4;480.32;487.5;493.01;496.9;499.23;500;499.23;496.9;493.01;487.5;480.32;471.4;460.64;447.9;433.01;415.74;395.77;372.68;345.83;314.27;276.39;229.06;164.34;0;0;0;0;0;0;0;0;0;0;0;0;0;0;0;0;0;0;0;0;0;0;0;0;0;0;0;0;0;0;0;0;0;0;0;0;0;0;0;0;0;0;0;0;0;0;0;0;0;0;0;0;0;0;0;0;0;0;0;0;0;0;0;0;0;104.49;254.49;404.49;554.49;704.49;854.49;1004.5;1154.5;1304.5;1170.5;1020.5;870.51;720.51;570.51;420.51;270.51;120.51;-29.494;-179.49;-45.506;0;0;0;0;0;0;0;0;0;0;0;0;0;0;0;164.34;229.06;276.39;314.27;345.83;372.68;395.77;415.74;433.01;447.9;460.64;471.4;480.32;487.5;493.01;496.9;499.23;500;499.23;496.9;493.01;487.5;480.32;471.4;460.64;447.9;433.01;415.74;395.77;372.68;345.83;314.27;276.39;229.06;164.34;0;0;0;0;0;0;0;0;0;0;0;0;0;0;0;0;0;0;0;0;0;0;0;0;0;0;0;0;0;0;0;0;0;0;0;0;0;0;0;0;0;0;0;0;0;0;0;0;0;0;0;0;0;0;0;0;0;0;0;0;0;0;0;0;0;129.78;279.78;429.78;579.78;729.78;879.78;1029.8;1179.8;1295.2;1145.2;995.22;845.22;695.22;545.22;395.22;245.22;95.225;-54.775;-170.22;-20.225;0;0;0;0;0;0;0;0;0;0;0;0;0;0;0;164.34;229.06;276.39;314.27;345.83;372.68;395.77;415.74;433.01;447.9;460.64;471.4;480.32;487.5;493.01;496.9;499.23;500;499.23;496.9;493.01;487.5;480.32;471.4;460.64;447.9;433.01;415.74;395.77;372.68;345.83;314.27;276.39;229.06;164.34;0;0;0;0;0;0;0;0;0;0;0;0;0;0;0;0;0;0;0;0;0;0;0;0;0;0;0;0;0;0;0;0;0;0;0;0;0;0;0;0;0;0;0;0;0;0;0;0;0;0;0;0;0;0;0;0;0;0;0;0;0;0;0;0;5.0562;155.06;305.06;455.06;605.06;755.06;905.06;1055.1;1205.1;1269.9;1119.9;969.94;819.94;669.94;519.94;369.94;219.94;69.944;-80.056;-144.94;0;0;0;0;0;0;0;0;0;0;0;0;0;0;0;164.34;229.06;276.39;314.27;345.83;372.68;395.77;415.74;433.01;447.9;460.64;471.4;480.32;487.5;493.01;496.9;499.23;500;499.23;496.9;493.01;487.5;480.32;471.4;460.64;447.9;433.01;415.74;395.77;372.68;345.83;314.27;276.39;229.06;164.34;0;0;0;0;0;0;0;0;0;0;0;0;0;0;0;0;0;0;0;0;0;0;0;0;0;0;0;0;0;0;0;0;0;0;0;0;0;0;0;0;0;0;0;0;0;0;0;0;0;0;0;0;0;0;0;0;0;0;0;0;0;0;0;0;0;30.337;180.34;330.34;480.34;630.34;780.34;930.34;1080.3;1230.3;1244.7;1094.7;944.66;794.66;644.66;494.66;344.66;194.66;44.663;-105.34;-119.66;0;0;0;0;0;0;0;0;0;0;0;0;0;0;0;164.34;229.06;276.39;314.27;345.83;372.68;395.77;415.74;433.01;447.9;460.64;471.4;480.32;487.5;493.01;496.9;499.23;500;499.23;496.9;493.01;487.5;480.32;471.4;460.64;447.9;433.01;415.74;395.77;372.68;345.83;314.27;276.39;229.06;164.34;0;0;0;0;0;0;0;0;0;0;0;0;0;0;0;0;0;0;0;0;0;0;0;0;0;0;0;0;0;0;0;0;0;0;0;0;0;0;0;0;0;0;0;0;0;0;0;0;0;0;0;0;0;0;0;0;0;0;0;0;0;0;0;0;0;55.618;205.62;355.62;505.62;655.62;805.62;955.62;1105.6;1255.6;1219.4;1069.4;919.38;769.38;619.38;469.38;319.38;169.38;19.382;-130.62;-94.382;0;0;0;0;0;0;0;0;0;0;0;0;0;0;0;164.34;229.06;276.39;314.27;345.83;372.68;395.77;415.74;433.01;447.9;460.64;471.4;480.32;487.5;493.01;496.9;499.23;500;499.23;496.9;493.01;487.5;480.32;471.4;460.64;447.9;433.01;415.74;395.77;372.68;345.83;314.27;276.39;229.06;164.34;0;0;0;0;0;0;0;0;0;0;0;0;0;0;0;0;0;0;0;0;0;0;0;0;0;0;0;0;0;0;0;0;0;0;0;0;0;0;0;0;0;0;0;0;0;0;0;0;0;0;0;0;0;0;0;0;0;0;0;0;0;0;0;0;0;80.899;230.9;380.9;530.9;680.9;830.9;980.9;1130.9;1280.9;1194.1;1044.1;894.1;744.1;594.1;444.1;294.1;144.1;-5.8989;-155.9;-69.101;0;0;0;0;0;0;0;0;0;0;0;0;0;0;0;164.34;229.06;276.39;314.27;345.83;372.68;395.77;415.74;433.01;447.9;460.64;471.4;480.32;487.5;493.01;496.9;499.23;500;499.23;496.9;493.01;487.5;480.32;471.4;460.64;447.9;433.01;415.74;395.77;372.68;345.83;314.27;276.39;229.06;164.34;0;0;0;0;0;0;0;0;0;0;0;0;0;0;0;0;0;0;0;0;0;0;0;0;0;0;0;0;0;0;0;0;0;0;0;0;0;0;0;0;0;0;0;0;0;0;0;0;0;0;0;0;0;0;0;0;0;0;0;0;0;0;0;0;0;106.18;256.18;406.18;556.18;706.18;856.18;1006.2;1156.2;1306.2;1168.8;1018.8;868.82;718.82;568.82;418.82;268.82;118.82;-31.18;-181.18;-43.82;0;0;0;0;0;0;0;0;0;0;0;0;0;0;0;164.34;229.06;276.39;314.27;345.83;372.68;395.77;415.74;433.01;447.9;460.64;471.4;480.32;487.5;493.01;496.9;499.23;500;499.23;496.9;493.01;487.5;480.32;471.4;460.64;447.9;433.01;415.74;395.77;372.68;345.83;314.27;276.39;229.06;164.34;0;0;0;0;0;0;0;0;0;0;0;0;0;0;0;0;0;0;0;0;0;0;0;0;0;0;0;0;0;0;0;0;0;0;0;0;0;0;0;0;0;0;0;0;0;0;0;0;0;0;0;0;0;0;0;0;0;0;0;0;0;0;0;0;0;131.46;281.46;431.46;581.46;731.46;881.46;1031.5;1181.5;1293.5;1143.5;993.54;843.54;693.54;543.54;393.54;243.54;93.539;-56.461;-168.54;-18.539;0;0;0;0;0;0;0;0;0;0;0;0;0;0;0;164.34;229.06;276.39;314.27;345.83;372.68;395.77;415.74;433.01;447.9;460.64;471.4;480.32;487.5;493.01;496.9;499.23;500;499.23;496.9;493.01;487.5;480.32;471.4;460.64;447.9;433.01;415.74;395.77;372.68;345.83;314.27;276.39;229.06;164.34;0;0;0;0;0;0;0;0;0;0;0;0;0;0;0;0;0;0;0;0;0;0;0;0;0;0;0;0;0;0;0;0;0;0;0;0;0;0;0;0;0;0;0;0;0;0;0;0;0;0;0;0;0;0;0;0;0;0;0;0;0;0;0;0;6.7416;156.74;306.74;456.74;606.74;756.74;906.74;1056.7;1206.7;1268.3;1118.3;968.26;818.26;668.26;518.26;368.26;218.26;68.258;-81.742;-143.26;0;0;0;0;0;0;0;0;0;0;0;0;0;0;0;164.34;229.06;276.39;314.27;345.83;372.68;395.77;415.74;433.01;447.9;460.64;471.4;480.32;487.5;493.01;496.9;499.23;500;499.23;496.9;493.01;487.5;480.32;471.4;460.64;447.9;433.01;415.74;395.77;372.68;345.83;314.27;276.39;229.06;164.34;0;0;0;0;0;0;0;0;0;0;0;0;0;0;0;0;0;0;0;0;0;0;0;0;0;0;0;0;0;0;0;0;0;0;0;0;0;0;0;0;0;0;0;0;0;0;0;0;0;0;0;0;0;0;0;0;0;0;0;0;0;0;0;0;0;32.022;182.02;332.02;482.02;632.02;782.02;932.02;1082;1232;1243;1093;942.98;792.98;642.98;492.98;342.98;192.98;42.978;-107.02;-117.98;0;0;0;0;0;0;0;0;0;0;0;0;0;0;0;164.34;229.06;276.39;314.27;345.83;372.68;395.77;415.74;433.01;447.9;460.64;471.4;480.32;487.5;493.01;496.9;499.23;500;499.23;496.9;493.01;487.5;480.32;471.4;460.64;447.9;433.01;415.74;395.77;372.68;345.83;314.27;276.39;229.06;164.34;0;0;0;0;0;0;0;0;0;0;0;0;0;0;0;0;0;0;0;0;0;0;0;0;0;0;0;0;0;0;0;0;0;0;0;0;0;0;0;0;0;0;0;0;0;0;0;0;0;0;0;0;0;0;0;0;0;0;0;0;0;0;0;0;0;57.303;207.3;357.3;507.3;657.3;807.3;957.3;1107.3;1257.3;1217.7;1067.7;917.7;767.7;617.7;467.7;317.7;167.7;17.697;-132.3;-92.697;0;0;0;0;0;0;0;0;0;0;0;0;0;0;0;164.34;229.06;276.39;314.27;345.83;372.68;395.77;415.74;433.01;447.9;460.64;471.4;480.32;487.5;493.01;496.9;499.23;500;499.23;496.9;493.01;487.5;480.32;471.4;460.64;447.9;433.01;415.74;395.77;372.68;345.83;314.27;276.39;229.06;164.34;0;0;0;0;0;0;0;0;0;0;0;0;0;0;0;0;0;0;0;0;0;0;0;0;0;0;0;0;0;0;0;0;0;0;0;0;0;0;0;0;0;0;0;0;0;0;0;0;0;0;0;0;0;0;0;0;0;0;0;0;0;0;0;0;0;82.584;232.58;382.58;532.58;682.58;832.58;982.58;1132.6;1282.6;1192.4;1042.4;892.42;742.42;592.42;442.42;292.42;142.42;-7.5843;-157.58;-67.416;0;0;0;0;0;0;0;0;0;0;0;0;0;0;0;164.34;229.06;276.39;314.27;345.83;372.68;395.77;415.74;433.01;447.9;460.64;471.4;480.32;487.5;493.01;496.9;499.23;500;499.23;496.9;493.01;487.5;480.32;471.4;460.64;447.9;433.01;415.74;395.77;372.68;345.83;314.27;276.39;229.06;164.34;0;0;0;0;0;0;0;0;0;0;0;0;0;0;0;0;0;0;0;0;0;0;0;0;0;0;0;0;0;0;0;0;0;0;0;0;0;0;0;0;0;0;0;0;0;0;0;0;0;0;0;0;0;0;0;0;0;0;0;0;0;0;0;0;0;107.87;257.87;407.87;557.87;707.87;857.87;1007.9;1157.9;1307.9;1167.1;1017.1;867.13;717.13;567.13;417.13;267.13;117.13;-32.865;-182.87;-42.135;0;0;0;0;0;0;0;0;0;0;0;0;0;0;0;164.34;229.06;276.39;314.27;345.83;372.68;395.77;415.74;433.01;447.9;460.64;471.4;480.32;487.5;493.01;496.9;499.23;500;499.23;496.9;493.01;487.5;480.32;471.4;460.64;447.9;433.01;415.74;395.77;372.68;345.83;314.27;276.39;229.06;164.34;0;0;0;0;0;0;0;0;0;0;0;0;0;0;0;0;0;0;0;0;0;0;0;0;0;0;0;0;0;0;0;0;0;0;0;0;0;0;0;0;0;0;0;0;0;0;0;0;0;0;0;0;0;0;0;0;0;0;0;0;0;0;0;0;0;133.15;283.15;433.15;583.15;733.15;883.15;1033.1;1183.1;1291.9;1141.9;991.85;841.85;691.85;541.85;391.85;241.85;91.854;-58.146;-166.85;-16.854;0;0;0;0;0;0;0;0;0;0;0;0;0;0;0;164.34;229.06;276.39;314.27;345.83;372.68;395.77;415.74;433.01;447.9;460.64;471.4;480.32;487.5;493.01;496.9;499.23;500;499.23;496.9;493.01;487.5;480.32;471.4;460.64;447.9;433.01;415.74;395.77;372.68;345.83;314.27;276.39;229.06;164.34;0;0;0;0;0;0;0;0;0;0;0;0;0;0;0;0;0;0;0;0;0;0;0;0;0;0;0;0;0;0;0;0;0;0;0;0;0;0;0;0;0;0;0;0;0;0;0;0;0;0;0;0;0;0;0;0;0;0;0;0;0;0;0;0;8.427;158.43;308.43;458.43;608.43;758.43;908.43;1058.4;1208.4;1266.6;1116.6;966.57;816.57;666.57;516.57;366.57;216.57;66.573;-83.427;-141.57;0;0;0;0;0;0;0;0;0;0;0;0;0;0;0;164.34;229.06;276.39;314.27;345.83;372.68;395.77;415.74;433.01;447.9;460.64;471.4;480.32;487.5;493.01;496.9;499.23;500;499.23;496.9;493.01;487.5;480.32;471.4;460.64;447.9;433.01;415.74;395.77;372.68;345.83;314.27;276.39;229.06;164.34;0;0;0;0;0;0;0;0;0;0;0;0;0;0;0;0;0;0;0;0;0;0;0;0;0;0;0;0;0;0;0;0;0;0;0;0;0;0;0;0;0;0;0;0;0;0;0;0;0;0;0;0;0;0;0;0;0;0;0;0;0;0;0;0;0;33.708;183.71;333.71;483.71;633.71;783.71;933.71;1083.7;1233.7;1241.3;1091.3;941.29;791.29;641.29;491.29;341.29;191.29;41.292;-108.71;-116.29;0;0;0;0;0;0;0;0;0;0;0;0;0;0;0;164.34;229.06;276.39;314.27;345.83;372.68;395.77;415.74;433.01;447.9;460.64;471.4;480.32;487.5;493.01;496.9;499.23;500;499.23;496.9;493.01;487.5;480.32;471.4;460.64;447.9;433.01;415.74;395.77;372.68;345.83;314.27;276.39;229.06;164.34;0;0;0;0;0;0;0;0;0;0;0;0;0;0;0;0;0;0;0;0;0;0;0;0;0;0;0;0;0;0;0;0;0;0;0;0;0;0;0;0;0;0;0;0;0;0;0;0;0;0;0;0;0;0;0;0;0;0;0;0;0;0;0;0;0;58.989;208.99;358.99;508.99;658.99;808.99;958.99;1109;1259;1216;1066;916.01;766.01;616.01;466.01;316.01;166.01;16.011;-133.99;-91.011;0;0;0;0;0;0;0;0;0;0;0;0;0;0;0;164.34;229.06;276.39;314.27;345.83;372.68;395.77;415.74;433.01;447.9;460.64;471.4;480.32;487.5;493.01;496.9;499.23;500;499.23;496.9;493.01;487.5;480.32;471.4;460.64;447.9;433.01;415.74;395.77;372.68;345.83;314.27;276.39;229.06;164.34;0;0;0;0;0;0;0;0;0;0;0;0;0;0;0;0;0;0;0;0;0;0;0;0;0;0;0;0;0;0;0;0;0;0;0;0;0;0;0;0;0;0;0;0;0;0;0;0;0;0;0;0;0;0;0;0;0;0;0;0;0;0;0;0;0;84.27;234.27;384.27;534.27;684.27;834.27;984.27;1134.3;1284.3;1190.7;1040.7;890.73;740.73;590.73;440.73;290.73;140.73;-9.2697;-159.27;-65.73;0;0;0;0;0;0;0;0;0;0;0;0;0;0;0;164.34;229.06;276.39;314.27;345.83;372.68;395.77;415.74;433.01;447.9;460.64;471.4;480.32;487.5;493.01;496.9;499.23;500;499.23;496.9;493.01;487.5;480.32;471.4;460.64;447.9;433.01;415.74;395.77;372.68;345.83;314.27;276.39;229.06;164.34;0;0;0;0;0;0;0;0;0;0;0;0;0;0;0;0;0;0;0;0;0;0;0;0;0;0;0;0;0;0;0;0;0;0;0;0;0;0;0;0;0;0;0;0;0;0;0;0;0;0;0;0;0;0;0;0;0;0;0;0;0;0;0;0;0;109.55;259.55;409.55;559.55;709.55;859.55;1009.6;1159.6;1309.6;1165.4;1015.4;865.45;715.45;565.45;415.45;265.45;115.45;-34.551;-184.55;-40.449;0;0;0;0;0;0;0;0;0;0;0;0;0;0;0;164.34;229.06;276.39;314.27;345.83;372.68;395.77;415.74;433.01;447.9;460.64;471.4;480.32;487.5;493.01;496.9;499.23;500;499.23;496.9;493.01;487.5;480.32;471.4;460.64;447.9;433.01;415.74;395.77;372.68;345.83;314.27;276.39;229.06;164.34;0;0;0;0;0;0;0;0;0;0;0;0;0;0;0;0;0;0;0;0;0;0;0;0;0;0;0;0;0;0;0;0;0;0;0;0;0;0;0;0;0;0;0;0;0;0;0;0;0;0;0;0;0;0;0;0;0;0;0;0;0;0;0;0;0;134.83;284.83;434.83;584.83;734.83;884.83;1034.8;1184.8;1290.2;1140.2;990.17;840.17;690.17;540.17;390.17;240.17;90.169;-59.831;-165.17;-15.169;0;0;0;0;0;0;0;0;0;0;0;0;0;0;0;164.34;229.06;276.39;314.27;345.83;372.68;395.77;415.74;433.01;447.9;460.64;471.4;480.32;487.5;493.01;496.9;499.23;500;499.23;496.9;493.01;487.5;480.32;471.4;460.64;447.9;433.01;415.74;395.77;372.68;345.83;314.27;276.39;229.06;164.34;0;0;0;0;0;0;0;0;0;0;0;0;0;0;0;0;0;0;0;0;0;0;0;0;0;0;0;0;0;0;0;0;0;0;0;0;0;0;0;0;0;0;0;0;0;0;0;0;0;0;0;0;0;0;0;0;0;0;0;0;0;0;0;0;10.112;160.11;310.11;460.11;610.11;760.11;910.11;1060.1;1210.1;1264.9;1114.9;964.89;814.89;664.89;514.89;364.89;214.89;64.888;-85.112;-139.89;0;0;0;0;0;0;0;0;0;0;0;0;0;0;0;164.34;229.06;276.39;314.27;345.83;372.68;395.77;415.74;433.01;447.9;460.64;471.4;480.32;487.5;493.01;496.9;499.23;500;499.23;496.9;493.01;487.5;480.32;471.4;460.64;447.9;433.01;415.74;395.77;372.68;345.83;314.27;276.39;229.06;164.34;0;0;0;0;0;0;0;0;0;0;0;0;0;0;0;0;0;0;0;0;0;0;0;0;0;0;0;0;0;0;0;0;0;0;0;0;0;0;0;0;0;0;0;0;0;0;0;0;0;0;0;0;0;0;0;0;0;0;0;0;0;0;0;0;0;35.393;185.39;335.39;485.39;635.39;785.39;935.39;1085.4;1235.4;1239.6;1089.6;939.61;789.61;639.61;489.61;339.61;189.61;39.607;-110.39;-114.61;0;0;0;0;0;0;0;0;0;0;0;0;0;0;0;164.34;229.06;276.39;314.27;345.83;372.68;395.77;415.74;433.01;447.9;460.64;471.4;480.32;487.5;493.01;496.9;499.23;500;499.23;496.9;493.01;487.5;480.32;471.4;460.64;447.9;433.01;415.74;395.77;372.68;345.83;314.27;276.39;229.06;164.34;0;0;0;0;0;0;0;0;0;0;0;0;0;0;0;0;0;0;0;0;0;0;0;0;0;0;0;0;0;0;0;0;0;0;0;0;0;0;0;0;0;0;0;0;0;0;0;0;0;0;0;0;0;0;0;0;0;0;0;0;0;0;0;0;0;60.674;210.67;360.67;510.67;660.67;810.67;960.67;1110.7;1260.7;1214.3;1064.3;914.33;764.33;614.33;464.33;314.33;164.33;14.326;-135.67;-89.326;0;0;0;0;0;0;0;0;0;0;0;0;0;0;0;164.34;229.06;276.39;314.27;345.83;372.68;395.77;415.74;433.01;447.9;460.64;471.4;480.32;487.5;493.01;496.9;499.23;500;499.23;496.9;493.01;487.5;480.32;471.4;460.64;447.9;433.01;415.74;395.77;372.68;345.83;314.27;276.39;229.06;164.34;0;0;0;0;0;0;0;0;0;0;0;0;0;0;0;0;0;0;0;0;0;0;0;0;0;0;0;0;0;0;0;0;0;0;0;0;0;0;0;0;0;0;0;0;0;0;0;0;0;0;0;0;0;0;0;0;0;0;0;0;0;0;0;0;0;85.955;235.96;385.96;535.96;685.96;835.96;985.96;1136;1286;1189;1039;889.04;739.04;589.04;439.04;289.04;139.04;-10.955;-160.96;-64.045;0;0;0;0;0;0;0;0;0;0;0;0;0;0;0;164.34;229.06;276.39;314.27;345.83;372.68;395.77;415.74;433.01;447.9;460.64;471.4;480.32;487.5;493.01;496.9;499.23;500;499.23;496.9;493.01;487.5;480.32;471.4;460.64;447.9;433.01;415.74;395.77;372.68;345.83;314.27;276.39;229.06;164.34;0;0;0;0;0;0;0;0;0;0;0;0;0;0;0;0;0;0;0;0;0;0;0;0;0;0;0;0;0;0;0;0;0;0;0;0;0;0;0;0;0;0;0;0;0;0;0;0;0;0;0;0;0;0;0;0;0;0;0;0;0;0;0;0;0;111.24;261.24;411.24;561.24;711.24;861.24;1011.2;1161.2;1311.2;1163.8;1013.8;863.76;713.76;563.76;413.76;263.76;113.76;-36.236;-186.24;-38.764;0;0;0;0;0;0;0;0;0;0;0;0;0;0;0;164.34;229.06;276.39;314.27;345.83;372.68;395.77;415.74;433.01;447.9;460.64;471.4;480.32;487.5;493.01;496.9;499.23;500;499.23;496.9;493.01;487.5;480.32;471.4;460.64;447.9;433.01;415.74;395.77;372.68;345.83;314.27;276.39;229.06;164.34;0;0;0;0;0;0;0;0;0;0;0;0;0;0;0;0;0;0;0;0;0;0;0;0;0;0;0;0;0;0;0;0;0;0;0;0;0;0;0;0;0;0;0;0;0;0;0;0;0;0;0;0;0;0;0;0;0;0;0;0;0;0;0;0;0;136.52;286.52;436.52;586.52;736.52;886.52;1036.5;1186.5;1288.5;1138.5;988.48;838.48;688.48;538.48;388.48;238.48;88.483;-61.517;-163.48;-13.483;0;0;0;0;0;0;0;0;0;0;0;0;0;0;0;164.34;229.06;276.39;314.27;345.83;372.68;395.77;415.74;433.01;447.9;460.64;471.4;480.32;487.5;493.01;496.9;499.23;500;499.23;496.9;493.01;487.5;480.32;471.4;460.64;447.9;433.01;415.74;395.77;372.68;345.83;314.27;276.39;229.06;164.34;0;0;0;0;0;0;0;0;0;0;0;0;0;0;0;0;0;0;0;0;0;0;0;0;0;0;0;0;0;0;0;0;0;0;0;0;0;0;0;0;0;0;0;0;0;0;0;0;0;0;0;0;0;0;0;0;0;0;0;0;0;0;0;0;11.798;161.8;311.8;461.8;611.8;761.8;911.8;1061.8;1211.8;1263.2;1113.2;963.2;813.2;663.2;513.2;363.2;213.2;63.202;-86.798;-138.2;0;0;0;0;0;0;0;0;0;0;0;0;0;0;0;164.34;229.06;276.39;314.27;345.83;372.68;395.77;415.74;433.01;447.9;460.64;471.4;480.32;487.5;493.01;496.9;499.23;500;499.23;496.9;493.01;487.5;480.32;471.4;460.64;447.9;433.01;415.74;395.77;372.68;345.83;314.27;276.39;229.06;164.34;0;0;0;0;0;0;0;0;0;0;0;0;0;0;0;0;0;0;0;0;0;0;0;0;0;0;0;0;0;0;0;0;0;0;0;0;0;0;0;0;0;0;0;0;0;0;0;0;0;0;0;0;0;0;0;0;0;0;0;0;0;0;0;0;0;37.079;187.08;337.08;487.08;637.08;787.08;937.08;1087.1;1237.1;1237.9;1087.9;937.92;787.92;637.92;487.92;337.92;187.92;37.921;-112.08;-112.92;0;0;0;0;0;0;0;0;0;0;0;0;0;0;0;164.34;229.06;276.39;314.27;345.83;372.68;395.77;415.74;433.01;447.9;460.64;471.4;480.32;487.5;493.01;496.9;499.23;500;499.23;496.9;493.01;487.5;480.32;471.4;460.64;447.9;433.01;415.74;395.77;372.68;345.83;314.27;276.39;229.06;164.34;0;0;0;0;0;0;0;0;0;0;0;0;0;0;0;0;0;0;0;0;0;0;0;0;0;0;0;0;0;0;0;0;0;0;0;0;0;0;0;0;0;0;0;0;0;0;0;0;0;0;0;0;0;0;0;0;0;0;0;0;0;0;0;0;0;62.36;212.36;362.36;512.36;662.36;812.36;962.36;1112.4;1262.4;1212.6;1062.6;912.64;762.64;612.64;462.64;312.64;162.64;12.64;-137.36;-87.64;0;0;0;0;0;0;0;0;0;0;0;0;0;0;0;164.34;229.06;276.39;314.27;345.83;372.68;395.77;415.74;433.01;447.9;460.64;471.4;480.32;487.5;493.01;496.9;499.23;500;499.23;496.9;493.01;487.5;480.32;471.4;460.64;447.9;433.01;415.74;395.77;372.68;345.83;314.27;276.39;229.06;164.34;0;0;0;0;0;0;0;0;0;0;0;0;0;0;0;0;0;0;0;0;0;0;0;0;0;0;0;0;0;0;0;0;0;0;0;0;0;0;0;0;0;0;0;0;0;0;0;0;0;0;0;0;0;0;0;0;0;0;0;0;0;0;0;0;0;87.64;237.64;387.64;537.64;687.64;837.64;987.64;1137.6;1287.6;1187.4;1037.4;887.36;737.36;587.36;437.36;287.36;137.36;-12.64;-162.64;-62.36;0;0;0;0;0;0;0;0;0;0;0;0;0;0;0;164.34;229.06;276.39;314.27;345.83;372.68;395.77;415.74;433.01;447.9;460.64;471.4;480.32;487.5;493.01;496.9;499.23;500;499.23;496.9;493.01;487.5;480.32;471.4;460.64;447.9;433.01;415.74;395.77;372.68;345.83;314.27;276.39;229.06;164.34;0;0;0;0;0;0;0;0;0;0;0;0;0;0;0;0;0;0;0;0;0;0;0;0;0;0;0;0;0;0;0;0;0;0;0;0;0;0;0;0;0;0;0;0;0;0;0;0;0;0;0;0;0;0;0;0;0;0;0;0;0;0;0;0;0;112.92;262.92;412.92;562.92;712.92;862.92;1012.9;1162.9;1312.1;1162.1;1012.1;862.08;712.08;562.08;412.08;262.08;112.08;-37.921;-187.08;-37.079;0;0;0;0;0;0;0;0;0;0;0;0;0;0;0;164.34;229.06;276.39;314.27;345.83;372.68;395.77;415.74;433.01;447.9;460.64;471.4;480.32;487.5;493.01;496.9;499.23;500;499.23;496.9;493.01;487.5;480.32;471.4;460.64;447.9;433.01;415.74;395.77;372.68;345.83;314.27;276.39;229.06;164.34;0;0;0;0;0;0;0;0;0;0;0;0;0;0;0;0;0;0;0;0;0;0;0;0;0;0;0;0;0;0;0;0;0;0;0;0;0;0;0;0;0;0;0;0;0;0;0;0;0;0;0;0;0;0;0;0;0;0;0;0;0;0;0;0;0;138.2;288.2;438.2;588.2;738.2;888.2;1038.2;1188.2;1286.8;1136.8;986.8;836.8;686.8;536.8;386.8;236.8;86.798;-63.202;-161.8;-11.798;0;0;0;0;0;0;0;0;0;0;0;0;0;0;0;164.34;229.06;276.39;314.27;345.83;372.68;395.77;415.74;433.01;447.9;460.64;471.4;480.32;487.5;493.01;496.9;499.23;500;499.23;496.9;493.01;487.5;480.32;471.4;460.64;447.9;433.01;415.74;