50
0;0;0;0;0;0;0;0;0;0;0;0;0;0;0;0;0;0;0;0;0;18.462;498.46;978.46;641.54;161.54;18.462;0;0;0;0;314.27;415.74;471.4;496.9;496.9;471.4;415.74;314.27;0;0;0;0;0;0;0;0;0;0;0;0;0;0;0;0;0;0;0;0;0;276.92;756.92;863.08;383.08;-96.923;276.92;0;0;0;314.27;415.74;471.4;496.9;496.9;471.4;415.74;314.27;0;0;0;0;0;0;0;0;0;0;0;0;0;0;0;0;0;0;0;0;0;55.385;535.38;1015.4;604.62;124.62;55.385;0;0;0;0;314.27;415.74;471.4;496.9;496.9;471.4;415.74;314.27;0;0;0;0;0;0;0;0;0;0;0;0;0;0;0;0;0;0;0;0;0;313.85;793.85;826.15;346.15;-133.85;313.85;0;0;0;314.27;415.74;471.4;496.9;496.9;471.4;415.74;314.27;0;0;0;0;0;0;0;0;0;0;0;0;0;0;0;0;0;0;0;0;0;92.308;572.31;1047.7;567.69;87.692;92.308;0;0;0;0;314.27;415.74;471.4;496.9;496.9;471.4;415.74;314.27;0;0;0;0;0;0;0;0;0;0;0;0;0;0;0;0;0;0;0;0;0;350.77;830.77;789.23;309.23;-129.23;0;0;0;0;314.27;415.74;471.4;496.9;496.9;471.4;415.74;314.27;0;0;0;0;0;0;0;0;0;0;0;0;0;0;0;0;0;0;0;0;0;129.23;609.23;1010.8;530.77;50.769;129.23;0;0;0;0;314.27;415.74;471.4;496.9;496.9;471.4;415.74;314.27;0;0;0;0;0;0;0;0;0;0;0;0;0;0;0;0;0;0;0;0;0;387.69;867.69;752.31;272.31;-92.308;0;0;0;0;314.27;415.74;471.4;496.9;496.9;471.4;415.74;314.27;0;0;0;0;0;0;0;0;0;0;0;0;0;0;0;0;0;0;0;0;0;166.15;646.15;973.85;493.85;13.846;166.15;0;0;0;0;314.27;415.74;471.4;496.9;496.9;471.4;415.74;314.27;0;0;0;0;0;0;0;0;0;0;0;0;0;0;0;0;0;0;0;0;0;424.62;904.62;715.38;235.38;-55.385;0;0;0;0;314.27;415.74;471.4;496.9;496.9;471.4;415.74;314.27;0;0;0;0;0;0;0;0;0;0;0;0;0;0;0;0;0;0;0;0;0;203.08;683.08;936.92;456.92;-23.077;203.08;0;0;0;0;314.27;415.74;471.4;496.9;496.9;471.4;415.74;314.27;0;0;0;0;0;0;0;0;0;0;0;0;0;0;0;0;0;0;0;0;0;461.54;941.54;678.46;198.46;-18.462;0;0;0;0;314.27;415.74;471.4;496.9;496.9;471.4;415.74;314.27;0;0;0;0;0;0;0;0;0;0;0;0;0;0;0;0;0;0;0;0;0;240;720;900;420;-60;240;0;0;0;314.27;415.74;471.4;496.9;496.9;471.4;415.74;314.27;0;0;0;0;0;0;0;0;0;0;0;0;0;0;0;0;0;0;0;0;0;18.462;498.46;978.46;641.54;161.54;18.462;0;0;0;0;314.27;415.74;471.4;496.9;496.9;471.4;415.74;314.27;0;0;0;0;0;0;0;0;0;0;0;0;0;0;0;0;0;0;0;0;0;276.92;756.92;863.08;383.08;-96.923;276.92;0;0;0;314.27;415.74;471.4;496.9;496.9;471.4;415.74;314.27;0;0;0;0;0;0;0;0;0;0;0;0;0;0;0;0;0;0;0;0;0;55.385;535.38;1015.4;604.62;124.62;55.385;0;0;0;0;314.27;415.74;471.4;496.9;496.9;471.4;415.74;314.27;0;0;0;0;0;0;0;0;0;0;0;0;0;0;0;0;0;0;0;0;0;313.85;793.85;826.15;346.15;-133.85;313.85;0;0;0;314.27;415.74;471.4;496.9;496.9;471.4;415.74;314.27;0;0;0;0;0;0;0;0;0;0;0;0;0;0;0;0;0;0;0;0;0;92.308;572.31;1047.7;567.69;87.692;92.308;0;0;0;0;314.27;415.74;471.4;496.9;496.9;471.4;415.74;314.27;0;0;0;0;0;0;0;0;0;0;0;0;0;0;0;0;0;0;0;0;0;350.77;830.77;789.23;309.23;-129.23;0;0;0;0;314.27;415.74;471.4;496.9;496.9;471.4;415.74;314.27;0;0;0;0;0;0;0;0;0;0;0;0;0;0;0;0;0;0;0;0;0;129.23;609.23;1010.8;530.77;50.769;129.23;0;0;0;0;314.27;415.74;471.4;496.9;496.9;471.4;415.74;314.27;0;0;0;0;0;0;0;0;0;0;0;0;0;0;0;0;0;0;0;0;0;387.69;867.69;752.31;272.31;-92.308;0;0;0;0;314.27;415.74;471.4;496.9;496.9;471.4;415.74;314.27;0;0;0;0;0;0;0;0;0;0;0;0;0;0;0;0;0;0;0;0;0;166.15;646.15;973.85;493.85;13.846;166.15;0;0;0;0;314.27;415.74;471.4;496.9;496.9;471.4;415.74;314.27;0;0;0;0;0;0;0;0;0;0;0;0;0;0;0;0;0;0;0;0;0;424.62;904.62;715.38;235.38;-55.385;0;0;0;0;314.27;415.74;471.4;496.9;496.9;471.4;415.74;314.27;0;0;0;0;0;0;0;0;0;0;0;0;0;0;0;0;0;0;0;0;0;203.08;683.08;936.92;456.92;-23.077;203.08;0;0;0;0;314.27;415.74;471.4;496.9;496.9;471.4;415.74;314.27;0;0;0;0;0;0;0;0;0;0;0;0;0;0;0;0;0;0;0;0;0;461.54;941.54;678.46;198.46;-18.462;0;0;0;0;314.27;415.74;471.4;496.9;496.9;471.4;415.74;314.27;0;0;0;0;0;0;0;0;0;0;0;0;0;0;0;0;0;0;0;0;0;240;720;900;420;-60;240;0;0;0;314.27;415.74;471.4;496.9;496.9;471.4;415.74;314.27;0;0;0;0;0;0;0;0;0;0;0;0;0;0;0;0;0;0;0;0;0;18.462;498.46;978.46;641.54;161.54;18.462;0;0;0;0;314.27;415.74;471.4;496.9;496.9;471.4;415.74;314.27;0;0;0;0;0;0;0;0;0;0;0;0;0;0;0;0;0;0;0;0;0;276.92;756.92;863.08;383.08;-96.923;276.92;0;0;0;314.27;415.74;471.4;496.9;496.9;471.4;415.74;314.27;0;0;0;0;0;0;0;0;0;0;0;0;0;0;0;0;0;0;0;0;0;55.385;535.38;1015.4;604.62;124.62;55.385;0;0;0;0;314.27;415.74;471.4;496.9;496.9;471.4;415.74;314.27;0;0;0;0;0;0;0;0;0;0;0;0;0;0;0;0;0;0;0;0;0;313.85;793.85;826.15;346.15;-133.85;313.85;0;0;0;314.27;415.74;471.4;496.9;496.9;471.4;415.74;314.27;0;0;0;0;0;0;0;0;0;0;0;0;0;0;0;0;0;0;0;0;0;92.308;572.31;1047.7;567.69;87.692;92.308;0;0;0;0;314.27;415.74;471.4;496.9;496.9;471.4;415.74;314.27;0;0;0;0;0;0;0;0;0;0;0;0;0;0;0;0;0;0;0;0;0;350.77;830.77;789.23;309.23;-129.23;0;0;0;0;314.27;415.74;471.4;496.9;496.9;471.4;415.74;314.27;0;0;0;0;0;0;0;0;0;0;0;0;0;0;0;0;0;0;0;0;0;129.23;609.23;1010.8;530.77;50.769;129.23;0;0;0;0;314.27;415.74;471.4;496.9;496.9;471.4;415.74;314.27;0;0;0;0;0;0;0;0;0;0;0;0;0;0;0;0;0;0;0;0;0;387.69;867.69;752.31;272.31;-92.308;0;0;0;0;314.27;415.74;471.4;496.9;496.9;471.4;415.74;314.27;0;0;0;0;0;0;0;0;0;0;0;0;0;0;0;0;0;0;0;0;0;166.15;646.15;973.85;493.85;13.846;166.15;0;0;0;0;314.27;415.74;471.4;496.9;496.9;471.4;415.74;314.27;0;0;0;0;0;0;0;0;0;0;0;0;0;0;0;0;0;0;0;0;0;424.62;904.62;715.38;235.38;-55.385;0;0;0;0;314.27;415.74;471.4;496.9;496.9;471.4;415.74;314.27;0;0;0;0;0;0;0;0;0;0;0;0;0;0;0;0;0;0;0;0;0;203.08;683.08;936.92;456.92;-23.077;203.08;0;0;0;0;314.27;415.74;471.4;496.9;496.9;471.4;415.74;314.27;0;0;0;0;0;0;0;0;0;0;0;0;0;0;0;0;0;0;0;0;0;461.54;941.54;678.46;198.46;-18.462;0;0;0;0;314.27;415.74;471.4;496.9;496.9;471.4;415.74;314.27;0;0;0;0;0;0;0;0;0;0;0;0;0;0;0;0;0;0;0;0;0;240;720;900;420;-60;240;0;0;0;0;314.27;415.74;471.4;496.9;496.9;471.4;415.74;314.27;0;0;0;0;0;0;0;0;0;0;0;0;0;0;0;0;0;0;0;0;18.462;498.46;978.46;641.54;161.54;18.462;0;0;0;0;314.27;415.74;471.4;496.9;496.9;471.4;415.74;314.27;0;0;0;0;0;0;0;0;0;0;0;0;0;0;0;0;0;0;0;0;0;276.92;756.92;863.08;383.08;-96.923;276.92;0;0;0;314.27;415.74;471.4;496.9;496.9;471.4;415.74;314.27;0;0;0;0;0;0;0;0;0;0;0;0;0;0;0;0;0;0;0;0;0;55.385;535.38;1015.4;604.62;124.62;55.385;0;0;0;0;314.27;415.74;471.4;496.9;496.9;471.4;415.74;314.27;0;0;0;0;0;0;0;0;0;0;0;0;0;0;0;0;0;0;0;0;0;313.85;793.85;826.15;346.15;-133.85;313.85;0;0;0;314.27;415.74;471.4;496.9;496.9;471.4;415.74;314.27;0;0;0;0;0;0;0;0;0;0;0;0;0;0;0;0;0;0;0;0;0;92.308;572.31;1047.7;567.69;87.692;92.308;0;0;0;0;314.27;415.74;471.4;496.9;496.9;471.4;415.74;314.27;0;0;0;0;0;0;0;0;0;0;0;0;0;0;0;0;0;0;0;0;0;350.77;830.77;789.23;309.23;-129.23;0;0;0;0;314.27;415.74;471.4;496.9;496.9;471.4;415.74;314.27;0;0;0;0;0;0;0;0;0;0;0;0;0;0;0;0;0;0;0;0;0;129.23;609.23;1010.8;530.77;50.769;129.23;0;0;0;0;314.27;415.74;471.4;496.9;496.9;471.4;415.74;314.27;0;0;0;0;0;0;0;0;0;0;0;0;0;0;0;0;0;0;0;0;0;387.69;867.69;752.31;272.31;-92.308;0;0;0;0;314.27;415.74;471.4;496.9;496.9;471.4;415.74;314.27;0;0;0;0;0;0;0;0;0;0;0;0;0;0;0;0;0;0;0;0;0;166.15;646.15;973.85;493.85;13.846;166.15;0;0;0;0;314.27;415.74;471.4;496.9;496.9;471.4;415.74;314.27;0;0;0;0;0;0;0;0;0;0;0;0;0;0;0;0;0;0;0;0;0;424.62;904.62;715.38;235.38;-55.385;0;0;0;0;314.27;415.74;471.4;496.9;496.9;471.4;415.74;314.27;0;0;0;0;0;0;0;0;0;0;0;0;0;0;0;0;0;0;0;0;0;203.08;683.08;936.92;456.92;-23.077;203.08;0;0;0;0;314.27;415.74;471.4;496.9;496.9;471.4;415.74;314.27;0;0;0;0;0;0;0;0;0;0;0;0;0;0;0;0;0;0;0;0;0;461.54;941.54;678.46;198.46;-18.462;0;0;0;0;314.27;415.74;471.4;496.9;496.9;471.4;415.74;314.27;0;0;0;0;0;0;0;0;0;0;0;0;0;0;0;0;0;0;0;0;0;240;720;900;420;-60;240;0;0;0;0;314.27;415.74;471.4;496.9;496.9;471.4;415.74;314.27;0;0;0;0;0;0;0;0;0;0;0;0;0;0;0;0;0;0;0;0;18.462;498.46;978.46;641.54;161.54;18.462;0;0;0;0;314.27;415.74;471.4;496.9;496.9;471.4;415.74;314.27;0;0;0;0;0;0;0;0;0;0;0;0;0;0;0;0;0;0;0;0;0;276.92;756.92;863.08;383.08;-96.923;276.92;0;0;0;314.27;415.74;471.4;496.9;496.9;471.4;415.74;314.27;0;0;0;0;0;0;0;0;0;0;0;0;0;0;0;0;0;0;0;0;0;55.385;535.38;1015.4;604.62;124.62;55.385;0;0;0;0;314.27;415.74;471.4;496.9;496.9;471.4;415.74;314.27;0;0;0;0;0;0;0;0;0;0;0;0;0;0;0;0;0;0;0;0;0;313.85;793.85;826.15;346.15;-133.85;313.85;0;0;0;314.27;415.74;471.4;496.9;496.9;471.4;415.74;314.27;0;0;0;0;0;0;0;0;0;0;0;0;0;0;0;0;0;0;0;0;0;92.308;572.31;1047.7;567.69;87.692;92.308;0;0;0;0;314.27;415.74;471.4;496.9;496.9;471.4;415.74;314.27;0;0;0;0;0;0;0;0;0;0;0;0;0;0;0;0;0;0;0;0;0;350.77;830.77;789.23;309.23;-129.23;0;0;0;0;314.27;415.74;471.4;496.9;496.9;471.4;415.74;314.27;0;0;0;0;0;0;0;0;0;0;0;0;0;0;0;0;0;0;0;0;0;129.23;609.23;1010.8;530.77;50.769;129.23;0;0;0;0;314.27;415.74;471.4;496.9;496.9;471.4;415.74;314.27;0;0;0;0;0;0;0;0;0;0;0;0;0;0;0;0;0;0;0;0;0;387.69;867.69;752.31;272.31;-92.308;0;0;0;0;314.27;415.74;471.4;496.9;496.9;471.4;415.74;314.27;0;0;0;0;0;0;0;0;0;0;0;0;0;0;0;0;0;0;0;0;0;166.15;646.15;973.85;493.85;13.846;166.15;0;0;0;0;314.27;415.74;471.4;496.9;496.9;471.4;415.74;314.27;0;0;0;0;0;0;0;0;0;0;0;0;0;0;0;0;0;0;0;0;0;424.62;904.62;715.38;235.38;-55.385;0;0;0;0;314.27;415.74;471.4;496.9;496.9;471.4;415.74;314.27;0;0;0;0;0;0;0;0;0;0;0;0;0;0;0;0;0;0;0;0;0;203.08;683.08;936.92;456.92;-23.077;203.08;0;0;0;0;314.27;415.74;471.4;496.9;496.9;471.4;415.74;314.27;0;0;0;0;0;0;0;0;0;0;0;0;0;0;0;0;0;0;0;0;0;461.54;941.54;678.46;198.46;-18.462;0;0;0;0;314.27;415.74;471.4;496.9;496.9;471.4;415.74;314.27;0;0;0;0;0;0;0;0;0;0;0;0;0;0;0;0;0;0;0;0;0;240;720;900;420;-60;240;0;0;0;0;314.27;415.74;471.4;496.9;496.9;471.4;415.74;314.27;0;0;0;0;0;0;0;0;0;0;0;0;0;0;0;0;0;0;0;0;18.462;498.46;978.46;641.54;161.54;18.462;0;0;0;0;314.27;415.74;471.4;496.9;496.9;471.4;415.74;314.27;0;0;0;0;0;0;0;0;0;0;0;0;0;0;0;0;0;0;0;0;0;276.92;756.92;863.08;383.08;-96.923;276.92;0;0;0;314.27;415.74;471.4;496.9;496.9;471.4;415.74;314.27;0;0;0;0;0;0;0;0;0;0;0;0;0;0;0;0;0;0;0;0;0;55.385;535.38;1015.4;604.62;124.62;55.385;0;0;0;0;314.27;415.74;471.4;496.9;496.9;471.4;415.74;314.27;0;0;0;0;0;0;0;0;0;0;0;0;0;0;0;0;0;0;0;0;0;313.85;793.85;826.15;346.15;-133.85;313.85;0;0;0;314.27;415.74;471.4;496.9;496.9;471.4;415.74;314.27;0;0;0;0;0;0;0;0;0;0;0;0;0;0;0;0;0;0;0;0;0;92.308;572.31;1047.7;567.69;87.692;92.308;0;0;0;0;314.27;415.74;471.4;496.9;496.9;471.4;415.74;314.27;0;0;0;0;0;0;0;0;0;0;0;0;0;0;0;0;0;0;0;0;0;350.77;830.77;789.23;309.23;-129.23;0;0;0;0;314.27;415.74;471.4;496.9;496.9;471.4;415.74;314.27;0;0;0;0;0;0;0;0;0;0;0;0;0;0;0;0;0;0;0;0;0;129.23;609.23;1010.8;530.77;50.769;129.23;0;0;0;0;314.27;415.74;471.4;496.9;496.9;471.4;415.74;314.27;0;0;0;0;0;0;0;0;0;0;0;0;0;0;0;0;0;0;0;0;0;387.69;867.69;752.31;272.31;-92.308;0;0;0;0;314.27;415.74;471.4;496.9;496.9;471.4;415.74;314.27;0;0;0;0;0;0;0;0;0;0;0;0;0;0;0;0;0;0;0;0;0;166.15;646.15;973.85;493.85;13.846;166.15;0;0;0;0;314.27;415.74;471.4;496.9;496.9;471.4;415.74;314.27;0;0;0;0;0;0;0;0;0;0;0;0;0;0;0;0;0;0;0;0;0;424.62;904.62;715.38;235.38;-55.385;0;0;0;0;314.27;415.74;471.4;496.9;496.9;471.4;415.74;314.27;0;0;0;0;0;0;0;0;0;0;0;0;0;0;0;0;0;0;0;0;0;203.08;683.08;936.92;456.92;-23.077;203.08;0;0;0;0;314.27;415.74;471.4;496.9;496.9;471.4;415.74;314.27;0;0;0;0;0;0;0;0;0;0;0;0;0;0;0;0;0;0;0;0;0;461.54;941.54;678.46;198.46;-18.462;0;0;0;0;314.27;415.74;471.4;496.9;496.9;471.4;415.74;314.27;0;0;0;0;0;0;0;0;0;0;0;0;0;0;0;0;0;0;0;0;0;240;720;900;420;-60;240;0;0;0;0;314.27;415.74;471.4;496.9;496.9;471.4;415.74;314.27;0;0;0;0;0;0;0;0;0;0;0;0;0;0;0;0;0;0;0;0;18.462;498.46;978.46;641.54;161.54;18.462;0;0;0;0;314.27;415.74;471.4;496.9;496.9;471.4;415.74;314.27;0;0;0;0;0;0;0;0;0;0;0;0;0;0;0;0;0;0;0;0;0;276.92;756.92;863.08;383.08;-96.923;276.92;0;0;0;314.27;415.74;471.4;496.9;496.9;471.4;415.74;314.27;0;0;0;0;0;0;0;0;0;0;0;0;0;0;0;0;0;0;0;0;0;55.385;535.38;1015.4;604.62;124.62;55.385;0;0;0;0;314.27;415.74;471.4;496.9;496.9;471.4;415.74;314.27;0;0;0;0;0;0;0;0;0;0;0;0;0;0;0;0;0;0;0;0;0;313.85;793.85;826.15;346.15;-133.85;313.85;0;0;0;314.27;415.74;471.4;496.9;496.9;471.4;415.74;314.27;0;0;0;0;0;0;0;0;0;0;0;0;0;0;0;0;0;0;0;0;0;92.308;572.31;1047.7;567.69;87.692;92.308;0;0;0;0;314.27;415.74;471.4;496.9;496.9;471.4;415.74;314.27;0;0;0;0;0;0;0;0;0;0;0;0;0;0;0;0;0;0;0;0;0;350.77;830.77;789.23;309.23;-129.23;0;0;0;0;314.27;415.74;471.4;496.9;496.9;471.4;415.74;314.27;0;0;0;0;0;0;0;0;0;0;0;0;0;0;0;0;0;0;0;0;0;129.23;609.23;1010.8;530.77;50.769;129.23;0;0;0;0;314.27;415.74;471.4;496.9;496.9;471.4;415.74;314.27;0;0;0;0;0;0;0;0;0;0;0;0;0;0;0;0;0;0;0;0;0;387.69;867.69;752.31;272.31;-92.308;0;0;0;0;314.27;415.74;471.4;496.9;496.9;471.4;415.74;314.27;0;0;0;0;0;0;0;0;0;0;0;0;0;0;0;0;0;0;0;0;0;166.15;646.15;973.85;493.85;13.846;166.15;0;0;0;0;314.27;415.74;471.4;496.9;496.9;471.4;415.74;314.27;0;0;0;0;0;0;0;0;0;0;0;0;0;0;0;0;0;0;0;0;0;424.62;904.62;715.38;235.38;-55.385;0;0;0;0;314.27;415.74;471.4;496.9;496.9;471.4;415.74;314.27;0;0;0;0;0;0;0;0;0;0;0;0;0;0;0;0;0;0;0;0;0;203.08;683.08;936.92;456.92;-23.077;203.08;0;0;0;0;314.27;415.74;471.4;496.9;496.9;471.4;415.74;314.27;0;0;0;0;0;0;0;0;0;0;0;0;0;0;0;0;0;0;0;0;0;461.54;941.54;678.46;198.46;-18.462;0;0;0;0;314.27;415.74;471.4;496.9;496.9;471.4;415.74;314.27;0;0;0;0;0;0;0;0;0;0;0;0;0;0;0;0;0;0;0;0;0;240;720;900;420;-60;240;0;0;0;0;314.27;415.74;471.4;496.9;496.9;471.4;415.74;314.27;0;0;0;0;0;0;0;0;0;0;0;0;0;0;0;0;0;0;0;0;18.462;498.46;978.46;641.54;161.54;18.462;0;0;0;0;314.27;415.74;471.4;496.9;496.9;471.4;415.74;314.27;0;0;0;0;0;0;0;0;0;0;0;0;0;0;0;0;0;0;0;0;0;276.92;756.92;863.08;383.08;-96.923;276.92;0;0;0;314.27;415.74;471.4;496.9;496.9;471.4;415.74;314.27;0;0;0;0;0;0;0;0;0;0;0;0;0;0;0;0;0;0;0;0;0;55.385;535.38;1015.4;604.62;124.62;55.385;0;0;0;0;314.27;415.74;471.4;496.9;496.9;471.4;415.74;314.27;0;0;0;0;0;0;0;0;0;0;0;0;0;0;0;0;0;0;0;0;0;313.85;793.85;826.15;346.15;-133.85;313.85;0;0;0;314.27;415.74;471.4;496.9;496.9;471.4;415.74;314.27;0;0;0;0;0;0;0;0;0;0;0;0;0;0;0;0;0;0;0;0;0;92.308;572.31;1047.7;567.69;87.692;92.308;0;0;0;0;314.27;415.74;471.4;496.9;496.9;471.4;415.74;314.27;0;0;0;0;0;0;0;0;0;0;0;0;0;0;0;0;0;0;0;0;0;350.77;830.77;789.23;309.23;-129.23;0;0;0;0;314.27;415.74;471.4;496.9;496.9;471.4;415.74;314.27;0;0;0;0;0;0;0;0;0;0;0;0;0;0;0;0;0;0;0;0;0;129.23;609.23;1010.8;530.77;50.769;129.23;0;0;0;0;314.27;415.74;471.4;496.9;496.9;471.4;415.74;314.27;0;0;0;0;0;0;0;0;0;0;0;0;0;0;0;0;0;0;0;0;0;387.69;867.69;752.31;272.31;-92.308;0;0;0;0;314.27;415.74;471.4;496.9;496.9;471.4;415.74;314.27;0;0;0;0;0;0;0;0;0;0;0;0;0;0;0;0;0;0;0;0;0;166.15;646.15;973.85;493.85;13.846;166.15;0;0;0;0;314.27;415.74;471.4;496.9;496.9;471.4;415.74;314.27;0;0;0;0;0;0;0;0;0;0;0;0;0;0;0;0;0;0;0;0;0;424.62;904.62;715.38;235.38;-55.385;0;0;0;0;314.27;415.74;471.4;496.9;496.9;471.4;415.74;314.27;0;0;0;0;0;0;0;0;0;0;0;0;0;0;0;0;0;0;0;0;0;203.08;683.08;936.92;456.92;-23.077;203.08;0;0;0;0;314.27;415.74;471.4;496.9;496.9;471.4;415.74;314.27;0;0;0;0;0;0;0;0;0;0;0;0;0;0;0;0;0;0;0;0;0;461.54;941.54;678.46;198.46;-18.462;0;0;0;0;314.27;415.74;471.4;496.9;496.9;471.4;415.74;314.27;0;0;0;0;0;0;0;0;0;0;0;0;0;0;0;0;0;0;0;0;0;240;720;900;420;-60;240;0;0;0;314.27;415.74;471.4;496.9;496.9;471.4;415.74;314.27;0;0;0;0;0;0;0;0;0;0;0;0;0;0;0;0;0;0;0;0;0;18.462;498.46;978.46;641.54;161.54;18.462;0;0;0;0;314.27;415.74;471.4;496.9;496.9;471.4;415.74;314.27;0;0;0;0;0;0;0;0;0;0;0;0;0;0;0;0;0;0;0;0;0;276.92;756.92;863.08;383.08;-96.923;276.92;0;0;0;314.27;415.74;471.4;496.9;496.9;471.4;415.74;314.27;0;0;0;0;0;0;0;0;0;0;0;0;0;0;0;0;0;0;0;0;0;55.385;535.38;1015.4;604.62;124.62;55.385;0;0;0;0;314.27;415.74;471.4;496.9;496.9;471.4;415.74;314.27;0;0;0;0;0;0;0;0;0;0;0;0;0;0;0;0;0;0;0;0;0;313.85;793.85;826.15;346.15;-133.85;313.85;0;0;0;314.27;415.74;471.4;496.9;496.9;471.4;415.74;314.27;0;0;0;0;0;0;0;0;0;0;0;0;0;0;0;0;0;0;0;0;0;92.308;572.31;1047.7;567.69;87.692;92.308;0;0;0;0;314.27;415.74;471.4;496.9;496.9;471.4;415.74;314.27;0;0;0;0;0;0;0;0;0;0;0;0;0;0;0;0;0;0;0;0;0;350.77;830.77;789.23;309.23;-129.23;0;0;0;0;314.27;415.74;471.4;496.9;496.9;471.4;415.74;314.27;0;0;0;0;0;0;0;0;0;0;0;0;0;0;0;0;0;0;0;0;0;129.23;609.23;1010.8;530.77;50.769;129.23;0;0;0;0;314.27;415.74;471.4;496.9;496.9;471.4;415.74;314.27;0;0;0;0;0;0;0;0;0;0;0;0;0;0;0;0;0;0;0;0;0;387.69;867.69;752.31;272.31;-92.308;0;0;0;0;314.27;415.74;471.4;496.9;496.9;471.4;415.74;314.27;0;0;0;0;0;0;0;0;0;0;0;0;0;0;0;0;0;0;0;0;0;166.15;646.15;973.85;493.85;13.846;166.15;0;0;0;0;314.27;415.74;471.4;496.9;496.9;471.4;415.74;314.27;0;0;0;0;0;0;0;0;0;0;0;0;0;0;0;0;0;0;0;0;0;424.62;904.62;715.38;235.38;-55.385;0;0;0;0;314.27;415.74;471.4;496.9;496.9;471.4;415.74;314.27;0;0;0;0;0;0;0;0;0;0;0;0;0;0;0;0;0;0;0;0;0;203.08;683.08;936.92;456.92;-23.077;203.08;0;0;0;0;314.27;415.74;471.4;496.9;496.9;471.4;415.74;314.27;0;0;0;0;0;0;0;0;0;0;0;0;0;0;0;0;0;0;0;0;0;461.54;941.54;678.46;198.46;-18.462;0;0;0;0;314.27;415.74;471.4;496.9;496.9;471.4;415.74;314.27;0;0;0;0;0;0;0;0;0;0;0;0;0;0;0;0;0;0;0;0;0;240;720;900;420;-60;240;0;0;0;314.27;415.74;471.4;496.9;496.9;471.4;415.74;314.27;0;0;0;0;0;0;0;0;0;0;0;0;0;0;0;0;0;0;0;0;0;18.462;498.46;978.46;641.54;161.54;18.462;0;0;0;0;314.27;415.74;471.4;496.9;496.9;471.4;415.74;314.27;0;0;0;0;0;0;0;0;0;0;0;0;0;0;0;0;0;0;0;0;0;276.92;756.92;863.08;383.08;-96.923;276.92;0;0;0;314.27;415.74;471.4;496.9;496.9;471.4;415.74;314.27;0;0;0;0;0;0;0;0;0;0;0;0;0;0;0;0;0;0;0;0;0;55.385;535.38;1015.4;604.62;124.62;55.385;0;0;0;0;314.27;415.74;471.4;496.9;496.9;471.4;415.74;314.27;0;0;0;0;0;0;0;0;0;0;0;0;0;0;0;0;0;0;0;0;0;313.85;793.85;826.15;346.15;-133.85;313.85;0;0;0;314.27;415.74;471.4;496.9;496.9;471.4;415.74;314.27;0;0;0;0;0;0;0;0;0;0;0;0;0;0;0;0;0;0;0;0;0;92.308;572.31;1047.7;567.69;87.692;92.308;0;0;0;0;314.27;415.74;471.4;496.9;496.9;471.4;415.74;314.27;0;0;0;0;0;0;0;0;0;0;0;0;0;0;0;0;0;0;0;0;0;350.77;830.77;789.23;309.23;-129.23;0;0;0;0;314.27;415.74;471.4;496.9;496.9;471.4;415.74;314.27;0;0;0;0;0;0;0;0;0;0;0;0;0;0;0;0;0;0;0;0;0;129.23;609.23;1010.8;530.77;50.769;129.23;0;0;0;0;314.27;415.74;471.4;496.9;496.9;471.4;415.74;314.27;0;0;0;0;0;0;0;0;0;0;0;0;0;0;0;0;0;0;0;0;0;387.69;867.69;752.31;272.31;-92.308;0;0;0;0;314.27;415.74;471.4;496.9;496.9;471.4;415.74;314.27;0;0;0;0;0;0;0;0;0;0;0;0;0;0;0;0;0;0;0;0;0;166.15;646.15;973.85;493.85;13.846;166.15;0;0;0;0;314.27;415.74;471.4;496.9;496.9;471.4;415.74;314.27;0;0;0;0;0;0;0;0;0;0;0;0;0;0;0;0;0;0;0;0;0;424.62;904.62;715.38;235.38;-55.385;0;0;0;0;314.27;415.74;471.4;496.9;496.9;471.4;415.74;314.27;0;0;0;0;0;0;0;0;0;0;0;0;0;0;0;0;0;0;0;0;0;203.08;683.08;936.92;456.92;-23.077;203.08;0;0;0;0;314.27;415.74;471.4;496.9;496.9;471.4;415.74;314.27;0;0;0;0;0;0;0;0;0;0;0;0;0;0;0;0;0;0;0;0;0;461.54;941.54;678.46;198.46;-18.462;0;0;0;0;314.27;415.74;471.4;496.9;496.9;471.4;415.74;314.27;0;0;0;0;0;0;0;0;0;0;0;0;0;0;0;0;0;0;0;0;0;240;720;900;420;-60;240;0;0;0;314.27;415.74;471.4;496.9;496.9;471.4;415.74;314.27;0;0;0;0;0;0;0;0;0;0;0;0;0;0;0;0;0;0;0;0;0;18.462;498.46;978.46;641.54;161.54;18.462;0;0;0;0;314.27;415.74;471.4;496.9;496.9;471.4;415.74;314.27;0;0;0;0;0;0;0;0;0;0;0;0;0;0;0;0;0;0;0;0;0;276.92;756.92;863.08;383.08;-96.923;276.92;0;0;0;314.27;415.74;471.4;496.9;496.9;471.4;415.74;314.27;0;0;0;0;0;0;0;0;0;0;0;0;0;0;0;0;0;0;0;0;0;55.385;535.38;1015.4;604.62;124.62;55.385;0;0;0;0;314.27;415.74;471.4;496.9;496.9;471.4;415.74;314.27;0;0;0;0;0;0;0;0;0;0;0;0;0;0;0;0;0;0;0;0;0;313.85;793.85;826.15;346.15;-133.85;313.85;0;0;0;314.27;415.74;471.4;496.9;496.9;471.4;415.74;314.27;0;0;0;0;0;0;0;0;0;0;0;0;0;0;0;0;0;0;0;0;0;92.308;572.31;1047.7;567.69;87.692;92.308;0;0;0;0;314.27;415.74;471.4;496.9;496.9;471.4;415.74;314.27;0;0;0;0;0;0;0;0;0;0;0;0;0;0;0;0;0;0;0;0;0;350.77;830.77;789.23;309.23;-129.23;0;0;0;0;314.27;415.74;471.4;496.9;496.9;471.4;415.74;314.27;0;0;0;0;0;0;0;0;0;0;0;0;0;0;0;0;0;0;0;0;0;129.23;609.23;1010.8;530.77;50.769;129.23;0;0;0;0;314.27;415.74;471.4;496.9;496.9;471.4;415.74;314.27;0;0;0;0;0;0;0;0;0;0;0;0;0;0;0;0;0;0;0;0;0;387.69;867.69;752.31;272.31;-92.308;0;0;0;0;314.27;415.74;471.4;496.9;496.9;471.4;415.74;314.27;0;0;0;0;0;0;0;0;0;0;0;0;0;0;0;0;0;0;0;0;0;166.15;646.15;973.85;493.85;13.846;166.15;0;0;0;0;314.27;415.74;471.4;496.9;496.9;471.4;415.74;314.27;0;0;0;0;0;0;0;0;0;0;0;0;0;0;0;0;0;0;0;0;0;424.62;904.62;715.38;235.38;-55.385;0;0;0;0;314.27;415.74;471.4;496.9;496.9;471.4;415.74;314.27;0;0;0;0;0;0;0;0;0;0;0;0;0;0;0;0;0;0;0;0;0;203.08;683.08;936.92;456.92;-23.077;203.08;0;0;0;0;314.27;415.74;471.4;496.9;496.9;471.4;415.74;314.27;0;0;0;0;0;0;0;0;0;0;0;0;0;0;0;0;0;0;0;0;0;461.54;941.54;678.46;198.46;-18.462;0;0;0;0;314.27;415.74;471.4;496.9;496.9;471.4;415.74;314.27;0;0;0;0;0;0;0;0;0;0;0;0;0;0;0;0;0;0;0;0;0;240;720;900;420;-60;240;0;0;0;314.27;415.74;471.4;496.9;496.9;471.4;415.74;314.27;0;0;0;0;0;0;0;0;0;0;0;0;0;0;0;0;0;0;0;0;0;18.462;498.46;978.46;641.54;161.54;18.462;0;0;0;0;314.27;415.74;471.4;496.9;496.9;471.4;415.74;314.27;0;0;0;0;0;0;0;0;0;0;0;0;0;0;0;0;0;0;0;0;0;276.92;756.92;863.08;383.08;-96.923;276.92;0;0;0;314.27;415.74;471.4;496.9;496.9;471.4;415.74;314.27;0;0;0;0;0;0;0;0;0;0;0;0;0;0;0;0;0;0;0;0;0;55.385;535.38;1015.4;604.62;124.62;55.385;0;0;0;0;314.27;415.74;471.4;496.9;496.9;471.4;415.74;314.27;0;0;0;0;0;0;0;0;0;0;0;0;0;0;0;0;0;0;0;0;0;313.85;793.85;826.15;346.15;-133.85;313.85;0;0;0;314.27;415.74;471.4;496.9;496.9;471.4;415.74;314.27;0;0;0;0;0;0;0;0;0;0;0;0;0;0;0;0;0;0;0;0;0;92.308;572.31;1047.7;567.69;87.692;92.308;0;0;0;0;314.27;415.74;471.4;496.9;496.9;471.4;415.74;314.27;0;0;0;0;0;0;0;0;0;0;0;0;0;0;0;0;0;0;0;0;0;350.77;830.77;789.23;309.23;-129.23;0;0;0;0;314.27;415.74;471.4;496.9;496.9;471.4;415.74;314.27;0;0;0;0;0;0;0;0;0;0;0;0;0;0;0;0;0;0;0;0;0;129.23;609.23;1010.8;530.77;50.769;129.23;0;0;0;0;314.27;415.74;471.4;496.9;496.9;471.4;415.74;314.27;0;0;0;0;0;0;0;0;0;0;0;0;0;0;0;0;0;0;0;0;0;387.69;867.69;752.31;272.31;-92.308;0;0;0;0;314.27;415.74;471.4;496.9;496.9;471.4;415.74;314.27;0;0;0;0;0;0;0;0;0;0;0;0;0;0;0;0;0;0;0;0;0;166.15;646.15;973.85;493.85;13.846;166.15;0;0;0;0;314.27;415.74;471.4;496.9;496.9;471.4;415.74;314.27;0;0;0;0;0;0;0;0;0;0;0;0;0;0;0;0;0;0;0;0;0;424.62;904.62;715.38;235.38;-55.385;0;0;0;0;314.27;415.74;471.4;496.9;496.9;471.4;415.74;314.27;0;0;0;0;0;0;0;0;0;0;0;0;0;0;0;0;0;0;0;0;0;203.08;683.08;936.92;456.92;-23.077;203.08;0;0;0;0;314.27;415.74;471.4;496.9;496.9;471.4;415.74;314.27;0;0;0;0;0;0;0;0;0;0;0;0;0;0;0;0;0;0;0;0;0;461.54;941.54;678.46;198.46;-18.462;0;0;0;0;314.27;415.74;471.4;496.9;496.9;471.4;415.74;314.27;0
