100
0;0;0;0;0;0;0;0;0;0;0;0;0;0;0;0;0;0;0;0;0;0;0;0;0;0;0;0;0;0;0;0;0;0;0;0;0;0;0;0;222.22;462.22;702.22;942.22;917.78;677.78;437.78;197.78;-42.222;-17.778;0;0;0;0;0;0;0;0;229.06;314.27;372.68;415.74;447.9;471.4;487.5;496.9;500;496.9;487.5;471.4;447.9;415.74;372.68;314.27;229.06;0;0;0;0;0;0;0;0;0;0;0;0;0;0;0;0;0;0;0;0;0;0;0;0;0;0;0;0;0;0;0;0;0;0;0;0;0;0;0;204.44;444.44;684.44;924.44;935.56;695.56;455.56;215.56;-24.444;-35.556;0;0;0;0;0;0;0;0;229.06;314.27;372.68;415.74;447.9;471.4;487.5;496.9;500;496.9;487.5;471.4;447.9;415.74;372.68;314.27;229.06;0;0;0;0;0;0;0;0;0;0;0;0;0;0;0;0;0;0;0;0;0;0;0;0;0;0;0;0;0;0;0;0;0;0;0;0;0;0;0;186.67;426.67;666.67;906.67;953.33;713.33;473.33;233.33;-6.6667;-53.333;0;0;0;0;0;0;0;0;229.06;314.27;372.68;415.74;447.9;471.4;487.5;496.9;500;496.9;487.5;471.4;447.9;415.74;372.68;314.27;229.06;0;0;0;0;0;0;0;0;0;0;0;0;0;0;0;0;0;0;0;0;0;0;0;0;0;0;0;0;0;0;0;0;0;0;0;0;0;0;0;168.89;408.89;648.89;888.89;971.11;731.11;491.11;251.11;11.111;-71.111;0;0;0;0;0;0;0;0;229.06;314.27;372.68;415.74;447.9;471.4;487.5;496.9;500;496.9;487.5;471.4;447.9;415.74;372.68;314.27;229.06;0;0;0;0;0;0;0;0;0;0;0;0;0;0;0;0;0;0;0;0;0;0;0;0;0;0;0;0;0;0;0;0;0;0;0;0;0;0;0;151.11;391.11;631.11;871.11;988.89;748.89;508.89;268.89;28.889;-88.889;0;0;0;0;0;0;0;0;229.06;314.27;372.68;415.74;447.9;471.4;487.5;496.9;500;496.9;487.5;471.4;447.9;415.74;372.68;314.27;229.06;0;0;0;0;0;0;0;0;0;0;0;0;0;0;0;0;0;0;0;0;0;0;0;0;0;0;0;0;0;0;0;0;0;0;0;0;0;0;0;133.33;373.33;613.33;853.33;1006.7;766.67;526.67;286.67;46.667;-106.67;0;0;0;0;0;0;0;0;229.06;314.27;372.68;415.74;447.9;471.4;487.5;496.9;500;496.9;487.5;471.4;447.9;415.74;372.68;314.27;229.06;0;0;0;0;0;0;0;0;0;0;0;0;0;0;0;0;0;0;0;0;0;0;0;0;0;0;0;0;0;0;0;0;0;0;0;0;0;0;0;115.56;355.56;595.56;835.56;1024.4;784.44;544.44;304.44;64.444;-124.44;0;0;0;0;0;0;0;0;229.06;314.27;372.68;415.74;447.9;471.4;487.5;496.9;500;496.9;487.5;471.4;447.9;415.74;372.68;314.27;229.06;0;0;0;0;0;0;0;0;0;0;0;0;0;0;0;0;0;0;0;0;0;0;0;0;0;0;0;0;0;0;0;0;0;0;0;0;0;0;0;97.778;337.78;577.78;817.78;1042.2;802.22;562.22;322.22;82.222;-142.22;0;0;0;0;0;0;0;0;229.06;314.27;372.68;415.74;447.9;471.4;487.5;496.9;500;496.9;487.5;471.4;447.9;415.74;372.68;314.27;229.06;0;0;0;0;0;0;0;0;0;0;0;0;0;0;0;0;0;0;0;0;0;0;0;0;0;0;0;0;0;0;0;0;0;0;0;0;0;0;0;80;320;560;800;1040;820;580;340;100;-140;80;0;0;0;0;0;0;0;229.06;314.27;372.68;415.74;447.9;471.4;487.5;496.9;500;496.9;487.5;471.4;447.9;415.74;372.68;314.27;229.06;0;0;0;0;0;0;0;0;0;0;0;0;0;0;0;0;0;0;0;0;0;0;0;0;0;0;0;0;0;0;0;0;0;0;0;0;0;0;0;62.222;302.22;542.22;782.22;1022.2;837.78;597.78;357.78;117.78;-122.22;62.222;0;0;0;0;0;0;0;229.06;314.27;372.68;415.74;447.9;471.4;487.5;496.9;500;496.9;487.5;471.4;447.9;415.74;372.68;314.27;229.06;0;0;0;0;0;0;0;0;0;0;0;0;0;0;0;0;0;0;0;0;0;0;0;0;0;0;0;0;0;0;0;0;0;0;0;0;0;0;0;44.444;284.44;524.44;764.44;1004.4;855.56;615.56;375.56;135.56;-104.44;44.444;0;0;0;0;0;0;0;229.06;314.27;372.68;415.74;447.9;471.4;487.5;496.9;500;496.9;487.5;471.4;447.9;415.74;372.68;314.27;229.06;0;0;0;0;0;0;0;0;0;0;0;0;0;0;0;0;0;0;0;0;0;0;0;0;0;0;0;0;0;0;0;0;0;0;0;0;0;0;0;26.667;266.67;506.67;746.67;986.67;873.33;633.33;393.33;153.33;-86.667;26.667;0;0;0;0;0;0;0;229.06;314.27;372.68;415.74;447.9;471.4;487.5;496.9;500;496.9;487.5;471.4;447.9;415.74;372.68;314.27;229.06;0;0;0;0;0;0;0;0;0;0;0;0;0;0;0;0;0;0;0;0;0;0;0;0;0;0;0;0;0;0;0;0;0;0;0;0;0;0;0;8.8889;248.89;488.89;728.89;968.89;891.11;651.11;411.11;171.11;-68.889;8.8889;0;0;0;0;0;0;0;229.06;314.27;372.68;415.74;447.9;471.4;487.5;496.9;500;496.9;487.5;471.4;447.9;415.74;372.68;314.27;229.06;0;0;0;0;0;0;0;0;0;0;0;0;0;0;0;0;0;0;0;0;0;0;0;0;0;0;0;0;0;0;0;0;0;0;0;0;0;0;0;0;231.11;471.11;711.11;951.11;908.89;668.89;428.89;188.89;-51.111;-8.8889;0;0;0;0;0;0;0;0;229.06;314.27;372.68;415.74;447.9;471.4;487.5;496.9;500;496.9;487.5;471.4;447.9;415.74;372.68;314.27;229.06;0;0;0;0;0;0;0;0;0;0;0;0;0;0;0;0;0;0;0;0;0;0;0;0;0;0;0;0;0;0;0;0;0;0;0;0;0;0;0;213.33;453.33;693.33;933.33;926.67;686.67;446.67;206.67;-33.333;-26.667;0;0;0;0;0;0;0;0;229.06;314.27;372.68;415.74;447.9;471.4;487.5;496.9;500;496.9;487.5;471.4;447.9;415.74;372.68;314.27;229.06;0;0;0;0;0;0;0;0;0;0;0;0;0;0;0;0;0;0;0;0;0;0;0;0;0;0;0;0;0;0;0;0;0;0;0;0;0;0;0;195.56;435.56;675.56;915.56;944.44;704.44;464.44;224.44;-15.556;-44.444;0;0;0;0;0;0;0;0;229.06;314.27;372.68;415.74;447.9;471.4;487.5;496.9;500;496.9;487.5;471.4;447.9;415.74;372.68;314.27;229.06;0;0;0;0;0;0;0;0;0;0;0;0;0;0;0;0;0;0;0;0;0;0;0;0;0;0;0;0;0;0;0;0;0;0;0;0;0;0;0;177.78;417.78;657.78;897.78;962.22;722.22;482.22;242.22;2.2222;-62.222;0;0;0;0;0;0;0;0;229.06;314.27;372.68;415.74;447.9;471.4;487.5;496.9;500;496.9;487.5;471.4;447.9;415.74;372.68;314.27;229.06;0;0;0;0;0;0;0;0;0;0;0;0;0;0;0;0;0;0;0;0;0;0;0;0;0;0;0;0;0;0;0;0;0;0;0;0;0;0;0;160;400;640;880;980;740;500;260;20;-80;0;0;0;0;0;0;0;0;229.06;314.27;372.68;415.74;447.9;471.4;487.5;496.9;500;496.9;487.5;471.4;447.9;415.74;372.68;314.27;229.06;0;0;0;0;0;0;0;0;0;0;0;0;0;0;0;0;0;0;0;0;0;0;0;0;0;0;0;0;0;0;0;0;0;0;0;0;0;0;0;142.22;382.22;622.22;862.22;997.78;757.78;517.78;277.78;37.778;-97.778;0;0;0;0;0;0;0;0;229.06;314.27;372.68;415.74;447.9;471.4;487.5;496.9;500;496.9;487.5;471.4;447.9;415.74;372.68;314.27;229.06;0;0;0;0;0;0;0;0;0;0;0;0;0;0;0;0;0;0;0;0;0;0;0;0;0;0;0;0;0;0;0;0;0;0;0;0;0;0;0;124.44;364.44;604.44;844.44;1015.6;775.56;535.56;295.56;55.556;-115.56;0;0;0;0;0;0;0;0;229.06;314.27;372.68;415.74;447.9;471.4;487.5;496.9;500;496.9;487.5;471.4;447.9;415.74;372.68;314.27;229.06;0;0;0;0;0;0;0;0;0;0;0;0;0;0;0;0;0;0;0;0;0;0;0;0;0;0;0;0;0;0;0;0;0;0;0;0;0;0;0;106.67;346.67;586.67;826.67;1033.3;793.33;553.33;313.33;73.333;-133.33;0;0;0;0;0;0;0;0;229.06;314.27;372.68;415.74;447.9;471.4;487.5;496.9;500;496.9;487.5;471.4;447.9;415.74;372.68;314.27;229.06;0;0;0;0;0;0;0;0;0;0;0;0;0;0;0;0;0;0;0;0;0;0;0;0;0;0;0;0;0;0;0;0;0;0;0;0;0;0;0;88.889;328.89;568.89;808.89;1048.9;811.11;571.11;331.11;91.111;-148.89;88.889;0;0;0;0;0;0;0;229.06;314.27;372.68;415.74;447.9;471.4;487.5;496.9;500;496.9;487.5;471.4;447.9;415.74;372.68;314.27;229.06;0;0;0;0;0;0;0;0;0;0;0;0;0;0;0;0;0;0;0;0;0;0;0;0;0;0;0;0;0;0;0;0;0;0;0;0;0;0;0;71.111;311.11;551.11;791.11;1031.1;828.89;588.89;348.89;108.89;-131.11;71.111;0;0;0;0;0;0;0;229.06;314.27;372.68;415.74;447.9;471.4;487.5;496.9;500;496.9;487.5;471.4;447.9;415.74;372.68;314.27;229.06;0;0;0;0;0;0;0;0;0;0;0;0;0;0;0;0;0;0;0;0;0;0;0;0;0;0;0;0;0;0;0;0;0;0;0;0;0;0;0;53.333;293.33;533.33;773.33;1013.3;846.67;606.67;366.67;126.67;-113.33;53.333;0;0;0;0;0;0;0;229.06;314.27;372.68;415.74;447.9;471.4;487.5;496.9;500;496.9;487.5;471.4;447.9;415.74;372.68;314.27;229.06;0;0;0;0;0;0;0;0;0;0;0;0;0;0;0;0;0;0;0;0;0;0;0;0;0;0;0;0;0;0;0;0;0;0;0;0;0;0;0;35.556;275.56;515.56;755.56;995.56;864.44;624.44;384.44;144.44;-95.556;35.556;0;0;0;0;0;0;0;229.06;314.27;372.68;415.74;447.9;471.4;487.5;496.9;500;496.9;487.5;471.4;447.9;415.74;372.68;314.27;229.06;0;0;0;0;0;0;0;0;0;0;0;0;0;0;0;0;0;0;0;0;0;0;0;0;0;0;0;0;0;0;0;0;0;0;0;0;0;0;0;17.778;257.78;497.78;737.78;977.78;882.22;642.22;402.22;162.22;-77.778;17.778;0;0;0;0;0;0;0;229.06;314.27;372.68;415.74;447.9;471.4;487.5;496.9;500;496.9;487.5;471.4;447.9;415.74;372.68;314.27;229.06;0;0;0;0;0;0;0;0;0;0;0;0;0;0;0;0;0;0;0;0;0;0;0;0;0;0;0;0;0;0;0;0;0;0;0;0;0;0;0;1.1642e-10;240;480;720;960;900;660;420;180;-60;5.8208e-11;0;0;0;0;0;0;0;229.06;314.27;372.68;415.74;447.9;471.4;487.5;496.9;500;496.9;487.5;471.4;447.9;415.74;372.68;314.27;229.06;0;0;0;0;0;0;0;0;0;0;0;0;0;0;0;0;0;0;0;0;0;0;0;0;0;0;0;0;0;0;0;0;0;0;0;0;0;0;0;0;222.22;462.22;702.22;942.22;917.78;677.78;437.78;197.78;-42.222;-17.778;0;0;0;0;0;0;0;0;229.06;314.27;372.68;415.74;447.9;471.4;487.5;496.9;500;496.9;487.5;471.4;447.9;415.74;372.68;314.27;229.06;0;0;0;0;0;0;0;0;0;0;0;0;0;0;0;0;0;0;0;0;0;0;0;0;0;0;0;0;0;0;0;0;0;0;0;0;0;0;0;204.44;444.44;684.44;924.44;935.56;695.56;455.56;215.56;-24.444;-35.556;0;0;0;0;0;0;0;0;229.06;314.27;372.68;415.74;447.9;471.4;487.5;496.9;500;496.9;487.5;471.4;447.9;415.74;372.68;314.27;229.06;0;0;0;0;0;0;0;0;0;0;0;0;0;0;0;0;0;0;0;0;0;0;0;0;0;0;0;0;0;0;0;0;0;0;0;0;0;0;0;186.67;426.67;666.67;906.67;953.33;713.33;473.33;233.33;-6.6667;-53.333;0;0;0;0;0;0;0;0;229.06;314.27;372.68;415.74;447.9;471.4;487.5;496.9;500;496.9;487.5;471.4;447.9;415.74;372.68;314.27;229.06;0;0;0;0;0;0;0;0;0;0;0;0;0;0;0;0;0;0;0;0;0;0;0;0;0;0;0;0;0;0;0;0;0;0;0;0;0;0;0;168.89;408.89;648.89;888.89;971.11;731.11;491.11;251.11;11.111;-71.111;0;0;0;0;0;0;0;0;229.06;314.27;372.68;415.74;447.9;471.4;487.5;496.9;500;496.9;487.5;471.4;447.9;415.74;372.68;314.27;229.06;0;0;0;0;0;0;0;0;0;0;0;0;0;0;0;0;0;0;0;0;0;0;0;0;0;0;0;0;0;0;0;0;0;0;0;0;0;0;0;151.11;391.11;631.11;871.11;988.89;748.89;508.89;268.89;28.889;-88.889;0;0;0;0;0;0;0;0;229.06;314.27;372.68;415.74;447.9;471.4;487.5;496.9;500;496.9;487.5;471.4;447.9;415.74;372.68;314.27;229.06;0;0;0;0;0;0;0;0;0;0;0;0;0;0;0;0;0;0;0;0;0;0;0;0;0;0;0;0;0;0;0;0;0;0;0;0;0;0;0;133.33;373.33;613.33;853.33;1006.7;766.67;526.67;286.67;46.667;-106.67;0;0;0;0;0;0;0;0;229.06;314.27;372.68;415.74;447.9;471.4;487.5;496.9;500;496.9;487.5;471.4;447.9;415.74;372.68;314.27;229.06;0;0;0;0;0;0;0;0;0;0;0;0;0;0;0;0;0;0;0;0;0;0;0;0;0;0;0;0;0;0;0;0;0;0;0;0;0;0;0;115.56;355.56;595.56;835.56;1024.4;784.44;544.44;304.44;64.444;-124.44;0;0;0;0;0;0;0;0;229.06;314.27;372.68;415.74;447.9;471.4;487.5;496.9;500;496.9;487.5;471.4;447.9;415.74;372.68;314.27;229.06;0;0;0;0;0;0;0;0;0;0;0;0;0;0;0;0;0;0;0;0;0;0;0;0;0;0;0;0;0;0;0;0;0;0;0;0;0;0;0;97.778;337.78;577.78;817.78;1042.2;802.22;562.22;322.22;82.222;-142.22;0;0;0;0;0;0;0;0;229.06;314.27;372.68;415.74;447.9;471.4;487.5;496.9;500;496.9;487.5;471.4;447.9;415.74;372.68;314.27;229.06;0;0;0;0;0;0;0;0;0;0;0;0;0;0;0;0;0;0;0;0;0;0;0;0;0;0;0;0;0;0;0;0;0;0;0;0;0;0;0;80;320;560;800;1040;820;580;340;100;-140;80;0;0;0;0;0;0;0;229.06;314.27;372.68;415.74;447.9;471.4;487.5;496.9;500;496.9;487.5;471.4;447.9;415.74;372.68;314.27;229.06;0;0;0;0;0;0;0;0;0;0;0;0;0;0;0;0;0;0;0;0;0;0;0;0;0;0;0;0;0;0;0;0;0;0;0;0;0;0;0;62.222;302.22;542.22;782.22;1022.2;837.78;597.78;357.78;117.78;-122.22;62.222;0;0;0;0;0;0;0;229.06;314.27;372.68;415.74;447.9;471.4;487.5;496.9;500;496.9;487.5;471.4;447.9;415.74;372.68;314.27;229.06;0;0;0;0;0;0;0;0;0;0;0;0;0;0;0;0;0;0;0;0;0;0;0;0;0;0;0;0;0;0;0;0;0;0;0;0;0;0;0;44.444;284.44;524.44;764.44;1004.4;855.56;615.56;375.56;135.56;-104.44;44.444;0;0;0;0;0;0;0;229.06;314.27;372.68;415.74;447.9;471.4;487.5;496.9;500;496.9;487.5;471.4;447.9;415.74;372.68;314.27;229.06;0;0;0;0;0;0;0;0;0;0;0;0;0;0;0;0;0;0;0;0;0;0;0;0;0;0;0;0;0;0;0;0;0;0;0;0;0;0;0;26.667;266.67;506.67;746.67;986.67;873.33;633.33;393.33;153.33;-86.667;26.667;0;0;0;0;0;0;0;229.06;314.27;372.68;415.74;447.9;471.4;487.5;496.9;500;496.9;487.5;471.4;447.9;415.74;372.68;314.27;229.06;0;0;0;0;0;0;0;0;0;0;0;0;0;0;0;0;0;0;0;0;0;0;0;0;0;0;0;0;0;0;0;0;0;0;0;0;0;0;0;8.8889;248.89;488.89;728.89;968.89;891.11;651.11;411.11;171.11;-68.889;8.8889;0;0;0;0;0;0;0;229.06;314.27;372.68;415.74;447.9;471.4;487.5;496.9;500;496.9;487.5;471.4;447.9;415.74;372.68;314.27;229.06;0;0;0;0;0;0;0;0;0;0;0;0;0;0;0;0;0;0;0;0;0;0;0;0;0;0;0;0;0;0;0;0;0;0;0;0;0;0;0;0;231.11;471.11;711.11;951.11;908.89;668.89;428.89;188.89;-51.111;-8.8889;0;0;0;0;0;0;0;0;229.06;314.27;372.68;415.74;447.9;471.4;487.5;496.9;500;496.9;487.5;471.4;447.9;415.74;372.68;314.27;229.06;0;0;0;0;0;0;0;0;0;0;0;0;0;0;0;0;0;0;0;0;0;0;0;0;0;0;0;0;0;0;0;0;0;0;0;0;0;0;0;213.33;453.33;693.33;933.33;926.67;686.67;446.67;206.67;-33.333;-26.667;0;0;0;0;0;0;0;0;229.06;314.27;372.68;415.74;447.9;471.4;487.5;496.9;500;496.9;487.5;471.4;447.9;415.74;372.68;314.27;229.06;0;0;0;0;0;0;0;0;0;0;0;0;0;0;0;0;0;0;0;0;0;0;0;0;0;0;0;0;0;0;0;0;0;0;0;0;0;0;0;195.56;435.56;675.56;915.56;944.44;704.44;464.44;224.44;-15.556;-44.444;0;0;0;0;0;0;0;0;229.06;314.27;372.68;415.74;447.9;471.4;487.5;496.9;500;496.9;487.5;471.4;447.9;415.74;372.68;314.27;229.06;0;0;0;0;0;0;0;0;0;0;0;0;0;0;0;0;0;0;0;0;0;0;0;0;0;0;0;0;0;0;0;0;0;0;0;0;0;0;0;177.78;417.78;657.78;897.78;962.22;722.22;482.22;242.22;2.2222;-62.222;0;0;0;0;0;0;0;0;229.06;314.27;372.68;415.74;447.9;471.4;487.5;496.9;500;496.9;487.5;471.4;447.9;415.74;372.68;314.27;229.06;0;0;0;0;0;0;0;0;0;0;0;0;0;0;0;0;0;0;0;0;0;0;0;0;0;0;0;0;0;0;0;0;0;0;0;0;0;0;0;160;400;640;880;980;740;500;260;20;-80;0;0;0;0;0;0;0;0;229.06;314.27;372.68;415.74;447.9;471.4;487.5;496.9;500;496.9;487.5;471.4;447.9;415.74;372.68;314.27;229.06;0;0;0;0;0;0;0;0;0;0;0;0;0;0;0;0;0;0;0;0;0;0;0;0;0;0;0;0;0;0;0;0;0;0;0;0;0;0;0;142.22;382.22;622.22;862.22;997.78;757.78;517.78;277.78;37.778;-97.778;0;0;0;0;0;0;0;0;229.06;314.27;372.68;415.74;447.9;471.4;487.5;496.9;500;496.9;487.5;471.4;447.9;415.74;372.68;314.27;229.06;0;0;0;0;0;0;0;0;0;0;0;0;0;0;0;0;0;0;0;0;0;0;0;0;0;0;0;0;0;0;0;0;0;0;0;0;0;0;0;124.44;364.44;604.44;844.44;1015.6;775.56;535.56;295.56;55.556;-115.56;0;0;0;0;0;0;0;0;229.06;314.27;372.68;415.74;447.9;471.4;487.5;496.9;500;496.9;487.5;471.4;447.9;415.74;372.68;314.27;229.06;0;0;0;0;0;0;0;0;0;0;0;0;0;0;0;0;0;0;0;0;0;0;0;0;0;0;0;0;0;0;0;0;0;0;0;0;0;0;0;106.67;346.67;586.67;826.67;1033.3;793.33;553.33;313.33;73.333;-133.33;0;0;0;0;0;0;0;0;229.06;314.27;372.68;415.74;447.9;471.4;487.5;496.9;500;496.9;487.5;471.4;447.9;415.74;372.68;314.27;229.06;0;0;0;0;0;0;0;0;0;0;0;0;0;0;0;0;0;0;0;0;0;0;0;0;0;0;0;0;0;0;0;0;0;0;0;0;0;0;0;88.889;328.89;568.89;808.89;1048.9;811.11;571.11;331.11;91.111;-148.89;88.889;0;0;0;0;0;0;0;229.06;314.27;372.68;415.74;447.9;471.4;487.5;496.9;500;496.9;487.5;471.4;447.9;415.74;372.68;314.27;229.06;0;0;0;0;0;0;0;0;0;0;0;0;0;0;0;0;0;0;0;0;0;0;0;0;0;0;0;0;0;0;0;0;0;0;0;0;0;0;0;71.111;311.11;551.11;791.11;1031.1;828.89;588.89;348.89;108.89;-131.11;71.111;0;0;0;0;0;0;0;229.06;314.27;372.68;415.74;447.9;471.4;487.5;496.9;500;496.9;487.5;471.4;447.9;415.74;372.68;314.27;229.06;0;0;0;0;0;0;0;0;0;0;0;0;0;0;0;0;0;0;0;0;0;0;0;0;0;0;0;0;0;0;0;0;0;0;0;0;0;0;0;53.333;293.33;533.33;773.33;1013.3;846.67;606.67;366.67;126.67;-113.33;53.333;0;0;0;0;0;0;0;229.06;314.27;372.68;415.74;447.9;471.4;487.5;496.9;500;496.9;487.5;471.4;447.9;415.74;372.68;314.27;229.06;0;0;0;0;0;0;0;0;0;0;0;0;0;0;0;0;0;0;0;0;0;0;0;0;0;0;0;0;0;0;0;0;0;0;0;0;0;0;0;35.556;275.56;515.56;755.56;995.56;864.44;624.44;384.44;144.44;-95.556;35.556;0;0;0;0;0;0;0;229.06;314.27;372.68;415.74;447.9;471.4;487.5;496.9;500;496.9;487.5;471.4;447.9;415.74;372.68;314.27;229.06;0;0;0;0;0;0;0;0;0;0;0;0;0;0;0;0;0;0;0;0;0;0;0;0;0;0;0;0;0;0;0;0;0;0;0;0;0;0;0;17.778;257.78;497.78;737.78;977.78;882.22;642.22;402.22;162.22;-77.778;17.778;0;0;0;0;0;0;0;229.06;314.27;372.68;415.74;447.9;471.4;487.5;496.9;500;496.9;487.5;471.4;447.9;415.74;372.68;314.27;229.06;0;0;0;0;0;0;0;0;0;0;0;0;0;0;0;0;0;0;0;0;0;0;0;0;0;0;0;0;0;0;0;0;0;0;0;0;0;0;0;1.1642e-10;240;480;720;960;900;660;420;180;-60;2.3283e-10;0;0;0;0;0;0;0;229.06;314.27;372.68;415.74;447.9;471.4;487.5;496.9;500;496.9;487.5;471.4;447.9;415.74;372.68;314.27;229.06;0;0;0;0;0;0;0;0;0;0;0;0;0;0;0;0;0;0;0;0;0;0;0;0;0;0;0;0;0;0;0;0;0;0;0;0;0;0;0;0;222.22;462.22;702.22;942.22;917.78;677.78;437.78;197.78;-42.222;-17.778;0;0;0;0;0;0;0;0;229.06;314.27;372.68;415.74;447.9;471.4;487.5;496.9;500;496.9;487.5;471.4;447.9;415.74;372.68;314.27;229.06;0;0;0;0;0;0;0;0;0;0;0;0;0;0;0;0;0;0;0;0;0;0;0;0;0;0;0;0;0;0;0;0;0;0;0;0;0;0;0;204.44;444.44;684.44;924.44;935.56;695.56;455.56;215.56;-24.444;-35.556;0;0;0;0;0;0;0;0;229.06;314.27;372.68;415.74;447.9;471.4;487.5;496.9;500;496.9;487.5;471.4;447.9;415.74;372.68;314.27;229.06;0;0;0;0;0;0;0;0;0;0;0;0;0;0;0;0;0;0;0;0;0;0;0;0;0;0;0;0;0;0;0;0;0;0;0;0;0;0;0;186.67;426.67;666.67;906.67;953.33;713.33;473.33;233.33;-6.6667;-53.333;0;0;0;0;0;0;0;0;229.06;314.27;372.68;415.74;447.9;471.4;487.5;496.9;500;496.9;487.5;471.4;447.9;415.74;372.68;314.27;229.06;0;0;0;0;0;0;0;0;0;0;0;0;0;0;0;0;0;0;0;0;0;0;0;0;0;0;0;0;0;0;0;0;0;0;0;0;0;0;0;168.89;408.89;648.89;888.89;971.11;731.11;491.11;251.11;11.111;-71.111;0;0;0;0;0;0;0;0;229.06;314.27;372.68;415.74;447.9;471.4;487.5;496.9;500;496.9;487.5;471.4;447.9;415.74;372.68;314.27;229.06;0;0;0;0;0;0;0;0;0;0;0;0;0;0;0;0;0;0;0;0;0;0;0;0;0;0;0;0;0;0;0;0;0;0;0;0;0;0;0;151.11;391.11;631.11;871.11;988.89;748.89;508.89;268.89;28.889;-88.889;0;0;0;0;0;0;0;0;229.06;314.27;372.68;415.74;447.9;471.4;487.5;496.9;500;496.9;487.5;471.4;447.9;415.74;372.68;314.27;229.06;0;0;0;0;0;0;0;0;0;0;0;0;0;0;0;0;0;0;0;0;0;0;0;0;0;0;0;0;0;0;0;0;0;0;0;0;0;0;0;133.33;373.33;613.33;853.33;1006.7;766.67;526.67;286.67;46.667;-106.67;0;0;0;0;0;0;0;0;229.06;314.27;372.68;415.74;447.9;471.4;487.5;496.9;500;496.9;487.5;471.4;447.9;415.74;372.68;314.27;229.06;0;0;0;0;0;0;0;0;0;0;0;0;0;0;0;0;0;0;0;0;0;0;0;0;0;0;0;0;0;0;0;0;0;0;0;0;0;0;0;115.56;355.56;595.56;835.56;1024.4;784.44;544.44;304.44;64.444;-124.44;0;0;0;0;0;0;0;0;229.06;314.27;372.68;415.74;447.9;471.4;487.5;496.9;500;496.9;487.5;471.4;447.9;415.74;372.68;314.27;229.06;0;0;0;0;0;0;0;0;0;0;0;0;0;0;0;0;0;0;0;0;0;0;0;0;0;0;0;0;0;0;0;0;0;0;0;0;0;0;0;97.778;337.78;577.78;817.78;1042.2;802.22;562.22;322.22;82.222;-142.22;0;0;0;0;0;0;0;0;229.06;314.27;372.68;415.74;447.9;471.4;487.5;496.9;500;496.9;487.5;471.4;447.9;415.74;372.68;314.27;229.06;0;0;0;0;0;0;0;0;0;0;0;0;0;0;0;0;0;0;0;0;0;0;0;0;0;0;0;0;0;0;0;0;0;0;0;0;0;0;0;80;320;560;800;1040;820;580;340;100;-140;80;0;0;0;0;0;0;0;229.06;314.27;372.68;415.74;447.9;471.4;487.5;496.9;500;496.9;487.5;471.4;447.9;415.74;372.68;314.27;229.06;0;0;0;0;0;0;0;0;0;0;0;0;0;0;0;0;0;0;0;0;0;0;0;0;0;0;0;0;0;0;0;0;0;0;0;0;0;0;0;62.222;302.22;542.22;782.22;1022.2;837.78;597.78;357.78;117.78;-122.22;62.222;0;0;0;0;0;0;0;229.06;314.27;372.68;415.74;447.9;471.4;487.5;496.9;500;496.9;487.5;471.4;447.9;415.74;372.68;314.27;229.06;0;0;0;0;0;0;0;0;0;0;0;0;0;0;0;0;0;0;0;0;0;0;0;0;0;0;0;0;0;0;0;0;0;0;0;0;0;0;0;44.444;284.44;524.44;764.44;1004.4;855.56;615.56;375.56;135.56;-104.44;44.444;0;0;0;0;0;0;0;229.06;314.27;372.68;415.74;447.9;471.4;487.5;496.9;500;496.9;487.5;471.4;447.9;415.74;372.68;314.27;229.06;0;0;0;0;0;0;0;0;0;0;0;0;0;0;0;0;0;0;0;0;0;0;0;0;0;0;0;0;0;0;0;0;0;0;0;0;0;0;0;26.667;266.67;506.67;746.67;986.67;873.33;633.33;393.33;153.33;-86.667;26.667;0;0;0;0;0;0;0;229.06;314.27;372.68;415.74;447.9;471.4;487.5;496.9;500;496.9;487.5;471.4;447.9;415.74;372.68;314.27;229.06;0;0;0;0;0;0;0;0;0;0;0;0;0;0;0;0;0;0;0;0;0;0;0;0;0;0;0;0;0;0;0;0;0;0;0;0;0;0;0;8.8889;248.89;488.89;728.89;968.89;891.11;651.11;411.11;171.11;-68.889;8.8889;0;0;0;0;0;0;0;229.06;314.27;372.68;415.74;447.9;471.4;487.5;496.9;500;496.9;487.5;471.4;447.9;415.74;372.68;314.27;229.06;0;0;0;0;0;0;0;0;0;0;0;0;0;0;0;0;0;0;0;0;0;0;0;0;0;0;0;0;0;0;0;0;0;0;0;0;0;0;0;0;231.11;471.11;711.11;951.11;908.89;668.89;428.89;188.89;-51.111;-8.8889;0;0;0;0;0;0;0;0;229.06;314.27;372.68;415.74;447.9;471.4;487.5;496.9;500;496.9;487.5;471.4;447.9;415.74;372.68;314.27;229.06;0;0;0;0;0;0;0;0;0;0;0;0;0;0;0;0;0;0;0;0;0;0;0;0;0;0;0;0;0;0;0;0;0;0;0;0;0;0;0;213.33;453.33;693.33;933.33;926.67;686.67;446.67;206.67;-33.333;-26.667;0;0;0;0;0;0;0;0;229.06;314.27;372.68;415.74;447.9;471.4;487.5;496.9;500;496.9;487.5;471.4;447.9;415.74;372.68;314.27;229.06;0;0;0;0;0;0;0;0;0;0;0;0;0;0;0;0;0;0;0;0;0;0;0;0;0;0;0;0;0;0;0;0;0;0;0;0;0;0;0;195.56;435.56;675.56;915.56;944.44;704.44;464.44;224.44;-15.556;-44.444;0;0;0;0;0;0;0;0;229.06;314.27;372.68;415.74;447.9;471.4;487.5;496.9;500;496.9;487.5;471.4;447.9;415.74;372.68;314.27;229.06;0;0;0;0;0;0;0;0;0;0;0;0;0;0;0;0;0;0;0;0;0;0;0;0;0;0;0;0;0;0;0;0;0;0;0;0;0;0;0;177.78;417.78;657.78;897.78;962.22;722.22;482.22;242.22;2.2222;-62.222;0;0;0;0;0;0;0;0;229.06;314.27;372.68;415.74;447.9;471.4;487.5;496.9;500;496.9;487.5;471.4;447.9;415.74;372.68;314.27;229.06;0;0;0;0;0;0;0;0;0;0;0;0;0;0;0;0;0;0;0;0;0;0;0;0;0;0;0;0;0;0;0;0;0;0;0;0;0;0;0;160;400;640;880;980;740;500;260;20;-80;0;0;0;0;0;0;0;0;229.06;314.27;372.68;415.74;447.9;471.4;487.5;496.9;500;496.9;487.5;471.4;447.9;415.74;372.68;314.27;229.06;0;0;0;0;0;0;0;0;0;0;0;0;0;0;0;0;0;0;0;0;0;0;0;0;0;0;0;0;0;0;0;0;0;0;0;0;0;0;0;142.22;382.22;622.22;862.22;997.78;757.78;517.78;277.78;37.778;-97.778;0;0;0;0;0;0;0;0;229.06;314.27;372.68;415.74;447.9;471.4;487.5;496.9;500;496.9;487.5;471.4;447.9;415.74;372.68;314.27;229.06;0;0;0;0;0;0;0;0;0;0;0;0;0;0;0;0;0;0;0;0;0;0;0;0;0;0;0;0;0;0;0;0;0;0;0;0;0;0;0;124.44;364.44;604.44;844.44;1015.6;775.56;535.56;295.56;55.556;-115.56;0;0;0;0;0;0;0;0;229.06;314.27;372.68;415.74;447.9;471.4;487.5;496.9;500;496.9;487.5;471.4;447.9;415.74;372.68;314.27;229.06;0;0;0;0;0;0;0;0;0;0;0;0;0;0;0;0;0;0;0;0;0;0;0;0;0;0;0;0;0;0;0;0;0;0;0;0;0;0;0;106.67;346.67;586.67;826.67;1033.3;793.33;553.33;313.33;73.333;-133.33;0;0;0;0;0;0;0;0;229.06;314.27;372.68;415.74;447.9;471.4;487.5;496.9;500;496.9;487.5;471.4;447.9;415.74;372.68;314.27;229.06;0;0;0;0;0;0;0;0;0;0;0;0;0;0;0;0;0;0;0;0;0;0;0;0;0;0;0;0;0;0;0;0;0;0;0;0;0;0;0;88.889;328.89;568.89;808.89;1048.9;811.11;571.11;331.11;91.111;-148.89;88.889;0;0;0;0;0;0;0;229.06;314.27;372.68;415.74;447.9;471.4;487.5;496.9;500;496.9;487.5;471.4;447.9;415.74;372.68;314.27;229.06;0;0;0;0;0;0;0;0;0;0;0;0;0;0;0;0;0;0;0;0;0;0;0;0;0;0;0;0;0;0;0;0;0;0;0;0;0;0;0;71.111;311.11;551.11;791.11;1031.1;828.89;588.89;348.89;108.89;-131.11;71.111;0;0;0;0;0;0;0;229.06;314.27;372.68;415.74;447.9;471.4;487.5;496.9;500;496.9;487.5;471.4;447.9;415.74;372.68;314.27;229.06;0;0;0;0;0;0;0;0;0;0;0;0;0;0;0;0;0;0;0;0;0;0;0;0;0;0;0;0;0;0;0;0;0;0;0;0;0;0;0;53.333;293.33;533.33;773.33;1013.3;846.67;606.67;366.67;126.67;-113.33;53.333;0;0;0;0;0;0;0;229.06;314.27;372.68;415.74;447.9;471.4;487.5;496.9;500;496.9;487.5;471.4;447.9;415.74;372.68;314.27;229.06;0;0;0;0;0;0;0;0;0;0;0;0;0;0;0;0;0;0;0;0;0;0;0;0;0;0;0;0;0;0;0;0;0;0;0;0;0;0;0;35.556;275.56;515.56;755.56;995.56;864.44;624.44;384.44;144.44;-95.556;35.556;0;0;0;0;0;0;0;229.06;314.27;372.68;415.74;447.9;471.4;487.5;496.9;500;496.9;487.5;471.4;447.9;415.74;372.68;314.27;229.06;0;0;0;0;0;0;0;0;0;0;0;0;0;0;0;0;0;0;0;0;0;0;0;0;0;0;0;0;0;0;0;0;0;0;0;0;0;0;0;17.778;257.78;497.78;737.78;977.78;882.22;642.22;402.22;162.22;-77.778;17.778;0;0;0;0;0;0;0;229.06;314.27;372.68;415.74;447.9;471.4;487.5;496.9;500;496.9;487.5;471.4;447.9;415.74;372.68;314.27;229.06;0;0;0;0;0;0;0;0;0;0;0;0;0;0;0;0;0;0;0;0;0;0;0;0;0;0;0;0;0;0;0;0;0;0;0;0;0;0;0;2.3283e-10;240;480;720;960;900;660;420;180;-60;4.6566e-10;0;0;0;0;0;0;0;229.06;314.27;372.68;415.74;447.9;471.4;487.5;496.9;500;496.9;487.5;471.4;447.9;415.74;372.68;314.27;229.06;0;0;0;0;0;0;0;0;0;0;0;0;0;0;0;0;0;0;0;0;0;0;0;0;0;0;0;0;0;0;0;0;0;0;0;0;0;0;0;0;222.22;462.22;702.22;942.22;917.78;677.78;437.78;197.78;-42.222;-17.778;0;0;0;0;0;0;0;0;229.06;314.27;372.68;415.74;447.9;471.4;487.5;496.9;500;496.9;487.5;471.4;447.9;415.74;372.68;314.27;229.06;0;0;0;0;0;0;0;0;0;0;0;0;0;0;0;0;0;0;0;0;0;0;0;0;0;0;0;0;0;0;0;0;0;0;0;0;0;0;0;204.44;444.44;684.44;924.44;935.56;695.56;455.56;215.56;-24.444;-35.556;0;0;0;0;0;0;0;0;229.06;314.27;372.68;415.74;447.9;471.4;487.5;496.9;500;496.9;487.5;471.4;447.9;415.74;372.68;314.27;229.06;0;0;0;0;0;0;0;0;0;0;0;0;0;0;0;0;0;0;0;0;0;0;0;0;0;0;0;0;0;0;0;0;0;0;0;0;0;0;0;186.67;426.67;666.67;906.67;953.33;713.33;473.33;233.33;-6.6667;-53.333;0;0;0;0;0;0;0;0;229.06;314.27;372.68;415.74;447.9;471.4;487.5;496.9;500;496.9;487.5;471.4;447.9;415.74;372.68;314.27;229.06;0;0;0;0;0;0;0;0;0;0;0;0;0;0;0;0;0;0;0;0;0;0;0;0;0;0;0;0;0;0;0;0;0;0;0;0;0;0;0;168.89;408.89;648.89;888.89;971.11;731.11;491.11;251.11;11.111;-71.111;0;0;0;0;0;0;0;0;229.06;314.27;372.68;415.74;447.9;471.4;487.5;496.9;500;496.9;487.5;471.4;447.9;415.74;372.68;314.27;229.06;0;0;0;0;0;0;0;0;0;0;0;0;0;0;0;0;0;0;0;0;0;0;0;0;0;0;0;0;0;0;0;0;0;0;0;0;0;0;0;151.11;391.11;631.11;871.11;988.89;748.89;508.89;268.89;28.889;-88.889;0;0;0;0;0;0;0;0;229.06;314.27;372.68;415.74;447.9;471.4;487.5;496.9;500;496.9;487.5;471.4;447.9;415.74;372.68;314.27;229.06;0;0;0;0;0;0;0;0;0;0;0;0;0;0;0;0;0;0;0;0;0;0;0;0;0;0;0;0;0;0;0;0;0;0;0;0;0;0;0;133.33;373.33;613.33;853.33;1006.7;766.67;526.67;286.67;46.667;-106.67;0;0;0;0;0;0;0;0;229.06;314.27;372.68;415.74;447.9;471.4;487.5;496.9;500;496.9;487.5;471.4;447.9;415.74;372.68;314.27;229.06;0;0;0;0;0;0;0;0;0;0;0;0;0;0;0;0;0;0;0;0;0;0;0;0;0;0;0;0;0;0;0;0;0;0;0;0;0;0;0;115.56;355.56;595.56;835.56;1024.4;784.44;544.44;304.44;64.444;-124.44;0;0;0;0;0;0;0;0;229.06;314.27;372.68;415.74;447.9;471.4;487.5;496.9;500;496.9;487.5;471.4;447.9;415.74;372.68;314.27;229.06;0;0;0;0;0;0;0;0;0;0;0;0;0;0;0;0;0;0;0;0;0;0;0;0;0;0;0;0;0;0;0;0;0;0;0;0;0;0;0;97.778;337.78;577.78;817.78;1042.2;802.22;562.22;322.22;82.222;-142.22;0;0;0;0;0;0;0;0;229.06;314.27;372.68;415.74;447.9;471.4;487.5;496.9;500;496.9;487.5;471.4;447.9;415.74;372.68;314.27;229.06;0;0;0;0;0;0;0;0;0;0;0;0;0;0;0;0;0;0;0;0;0;0;0;0;0;0;0;0;0;0;0;0;0;0;0;0;0;0;0;80;320;560;800;1040;820;580;340;100;-140;80;0;0;0;0;0;0;0;229.06;314.27;372.68;415.74;447.9;471.4;487.5;496.9;500;496.9;487.5;471.4;447.9;415.74;372.68;314.27;229.06;0;0;0;0;0;0;0;0;0;0;0;0;0;0;0;0;0;0;0;0;0;0;0;0;0;0;0;0;0;0;0;0;0;0;0;0;0;0;0;62.222;302.22;542.22;782.22;1022.2;837.78;597.78;357.78;117.78;-122.22;62.222;0;0;0;0;0;0;0;229.06;314.27;372.68;415.74;447.9;471.4;487.5;496.9;500;496.9;487.5;471.4;447.9;415.74;372.68;314.27;229.06;0;0;0;0;0;0;0;0;0;0;0;0;0;0;0;0;0;0;0;0;0;0;0;0;0;0;0;0;0;0;0;0;0;0;0;0;0;0;0;44.444;284.44;524.44;764.44;1004.4;855.56;615.56;375.56;135.56;-104.44;44.444;0;0;0;0;0;0;0;229.06;314.27;372.68;415.74;447.9;471.4;487.5;496.9;500;496.9;487.5;471.4;447.9;415.74;372.68;314.27;229.06;0;0;0;0;0;0;0;0;0;0;0;0;0;0;0;0;0;0;0;0;0;0;0;0;0;0;0;0;0;0;0;0;0;0;0;0;0;0;0;26.667;266.67;506.67;746.67;986.67;873.33;633.33;393.33;153.33;-86.667;26.667;0;0;0;0;0;0;0;229.06;314.27;372.68;415.74;447.9;471.4;487.5;496.9;500;496.9;487.5;471.4;447.9;415.74;372.68;314.27;229.06;0;0;0;0;0;0;0;0;0;0;0;0;0;0;0;0;0;0;0;0;0;0;0;0;0;0;0;0;0;0;0;0;0;0;0;0;0;0;0;8.8889;248.89;488.89;728.89;968.89;891.11;651.11;411.11;171.11;-68.889;8.8889;0;0;0;0;0;0;0;229.06;314.27;372.68;415.74;447.9;471.4;487.5;496.9;500;496.9;487.5;471.4;447.9;415.74;372.68;314.27;229.06;0;0;0;0;0;0;0;0;0;0;0;0;0;0;0;0;0;0;0;0;0;0;0;0;0;0;0;0;0;0;0;0;0;0;0;0;0;0;0;0;231.11;471.11;711.11;951.11;908.89;668.89;428.89;188.89;-51.111;-8.8889;0;0;0;0;0;0;0;0;229.06;314.27;372.68;415.74;447.9;471.4;487.5;496.9;500;496.9;487.5;471.4;447.9;415.74;372.68;314.27;229.06;0;0;0;0;0;0;0;0;0;0;0;0;0;0;0;0;0;0;0;0;0;0;0;0;0;0;0;0;0;0;0;0;0;0;0;0;0;0;0;213.33;453.33;693.33;933.33;926.67;686.67;446.67;206.67;-33.333;-26.667;0;0;0;0;0;0;0;0;229.06;314.27;372.68;415.74;447.9;471.4;487.5;496.9;500;496.9;487.5;471.4;447.9;415.74;372.68;314.27;229.06;0;0;0;0;0;0;0;0;0;0;0;0;0;0;0;0;0;0;0;0;0;0;0;0;0;0;0;0;0;0;0;0;0;0;0;0;0;0;0;195.56;435.56;675.56;915.56;944.44;704.44;464.44;224.44;-15.556;-44.444;0;0;0;0;0;0;0;0;229.06;314.27;372.68;415.74;447.9;471.4;487.5;496.9;500;496.9;487.5;471.4;447.9;415.74;372.68;314.27;229.06;0;0;0;0;0;0;0;0;0;0;0;0;0;0;0;0;0;0;0;0;0;0;0;0;0;0;0;0;0;0;0;0;0;0;0;0;0;0;0;177.78;417.78;657.78;897.78;962.22;722.22;482.22;242.22;2.2222;-62.222;0;0;0;0;0;0;0;0;229.06;314.27;372.68;415.74;447.9;471.4;487.5;496.9;500;496.9;487.5;471.4;447.9;415.74;372.68;314.27;229.06;0;0;0;0;0;0;0;0;0;0;0;0;0;0;0;0;0;0;0;0;0;0;0;0;0;0;0;0;0;0;0;0;0;0;0;0;0;0;0;160;400;640;880;980;740;500;260;20;-80;0;0;0;0;0;0;0;0;229.06;314.27;372.68;415.74;447.9;471.4;487.5;496.9;500;496.9;487.5;471.4;447.9;415.74;372.68;314.27;229.06;0;0;0;0;0;0;0;0;0;0;0;0;0;0;0;0;0;0;0;0;0;0;0;0;0;0;0;0;0;0;0;0;0;0;0;0;0;0;0;142.22;382.22;622.22;862.22;997.78;757.78;517.78;277.78;37.778;-97.778;0;0;0;0;0;0;0;0;229.06;314.27;372.68;415.74;447.9;471.4;487.5;496.9;500;496.9;487.5;471.4;447.9;415.74;372.68;314.27;229.06;0;0;0;0;0;0;0;0;0;0;0;0;0;0;0;0;0;0;0;0;0;0;0;0;0;0;0;0;0;0;0;0;0;0;0;0;0;0;0;124.44;364.44;604.44;844.44;1015.6;775.56;535.56;295.56;55.556;-115.56;0;0;0;0;0;0;0;0;229.06;314.27;372.68;415.74;447.9;471.4;487.5;496.9;500;496.9;487.5;471.4;447.9;415.74;372.68;314.27;229.06;0;0;0;0;0;0;0;0;0;0;0;0;0;0;0;0;0;0;0;0;0;0;0;0;0;0;0;0;0;0;0;0;0;0;0;0;0;0;0;106.67;346.67;586.67;826.67;1033.3;793.33;553.33;313.33;73.333;-133.33;0;0;0;0;0;0;0;0;229.06;314.27;372.68;415.74;447.9;471.4;487.5;496.9;500;496.9;487.5;471.4;447.9;415.74;372.68;314.27;229.06;0;0;0;0;0;0;0;0;0;0;0;0;0;0;0;0;0;0;0;0;0;0;0;0;0;0;0;0;0;0;0;0;0;0;0;0;0;0;0;88.889;328.89;568.89;808.89;1048.9;811.11;571.11;331.11;91.111;-148.89;88.889;0;0;0;0;0;0;0;229.06;314.27;372.68;415.74;447.9;471.4;487.5;496.9;500;496.9;487.5;471.4;447.9;415.74;372.68;314.27;229.06;0;0;0;0;0;0;0;0;0;0;0;0;0;0;0;0;0;0;0;0;0;0;0;0;0;0;0;0;0;0;0;0;0;0;0;0;0;0;0;71.111;311.11;551.11;791.11;1031.1;828.89;588.89;348.89;108.89;-131.11;71.111;0;0;0;0;0;0;0;229.06;314.27;372.68;415.74;447.9;471.4;487.5;496.9;500;496.9;487.5;471.4;447.9;415.74;372.68;314.27;229.06;0;0;0;0;0;0;0;0;0;0;0;0;0;0;0;0;0;0;0;0;0;0;0;0;0;0;0;0;0;0;0;0;0;0;0;0;0;0;0;53.333;293.33;533.33;773.33;1013.3;846.67;606.67;366.67;126.67;-113.33;53.333;0;0;0;0;0;0;0;229.06;314.27;372.68;415.74;447.9;471.4;487.5;496.9;500;496.9;487.5;471.4;447.9;415.74;372.68;314.27;229.06;0;0;0;0;0;0;0;0;0;0;0;0;0;0;0;0;0;0;0;0;0;0;0;0;0;0;0;0;0;0;0;0;0;0;0;0;0;0;0;35.556;275.56;515.56;755.56;995.56;864.44;624.44;384.44;144.44;-95.556;35.556;0;0;0;0;0;0;0;229.06;314.27;372.68;415.74;447.9;471.4;487.5;496.9;500;496.9;487.5;471.4;447.9;415.74;372.68;314.27;229.06;0;0;0;0;0;0;0;0;0;0;0;0;0;0;0;0;0;0;0;0;0;0;0;0;0;0;0;0;0;0;0;0;0;0;0;0;0;0;0;17.778;257.78;497.78;737.78;977.78;882.22;642.22;402.22;162.22;-77.778;17.778;0;0;0;0;0;0;0;229.06;314.27;372.68;415.74;447.9;471.4;487.5;496.9;500;496.9;487.5;471.4;447.9;415.74;372.68;314.27;229.06;0;0;0;0;0;0;0;0;0;0;0;0;0;0;0;0;0;0;0;0;0;0;0;0;0;0;0;0;0;0;0;0;0;0;0;0;0;0;0;4.191e-09;240;480;720;960;900;660;420;180;-60;4.191e-09;0;0;0;0;0;0;0;229.06;314.27;372.68;415.74;447.9;471.4;487.5;496.9;500;496.9;487.5;471.4;447.9;415.74;372.68;314.27;229.06;0;0;0;0;0;0;0;0;0;0;0;0;0;0;0;0;0;0;0;0;0;0;0;0;0;0;0;0;0;0;0;0;0;0;0;0;0;0;0;0;222.22;462.22;702.22;942.22;917.78;677.78;437.78;197.78;-42.222;-17.778;0;0;0;0;0;0;0;0;229.06;314.27;372.68;415.74;447.9;471.4;487.5;496.9;500;496.9;487.5;471.4;447.9;415.74;372.68;314.27;229.06;0;0;0;0;0;0;0;0;0;0;0;0;0;0;0;0;0;0;0;0;0;0;0;0;0;0;0;0;0;0;0;0;0;0;0;0;0;0;0;204.44;444.44;684.44;924.44;935.56;695.56;455.56;215.56;-24.444;-35.556;0;0;0;0;0;0;0;0;229.06;314.27;372.68;415.74;447.9;471.4;487.5;496.9;500;496.9;487.5;471.4;447.9;415.74;372.68;314.27;229.06;0;0;0;0;0;0;0;0;0;0;0;0;0;0;0;0;0;0;0;0;0;0;0;0;0;0;0;0;0;0;0;0;0;0;0;0;0;0;0;186.67;426.67;666.67;906.67;953.33;713.33;473.33;233.33;-6.6667;-53.333;0;0;0;0;0;0;0;0;229.06;314.27;372.68;415.74;447.9;471.4;487.5;496.9;500;496.9;487.5;471.4;447.9;415.74;372.68;314.27;229.06;0;0;0;0;0;0;0;0;0;0;0;0;0;0;0;0;0;0;0;0;0;0;0;0;0;0;0;0;0;0;0;0;0;0;0;0;0;0;0;168.89;408.89;648.89;888.89;971.11;731.11;491.11;251.11;11.111;-71.111;0;0;0;0;0;0;0;0;229.06;314.27;372.68;415.74;447.9;471.4;487.5;496.9;500;496.9;487.5;471.4;447.9;415.74;372.68;314.27;229.06;0;0;0;0;0;0;0;0;0;0;0;0;0;0;0;0;0;0;0;0;0;0;0;0;0;0;0;0;0;0;0;0;0;0;0;0;0;0;0;151.11;391.11;631.11;871.11;988.89;748.89;508.89;268.89;28.889;-88.889;0;0;0;0;0;0;0;0;229.06;314.27;372.68;415.74;447.9;471.4;487.5;496.9;500;496.9;487.5;471.4;447.9;415.74;372.68;314.27;229.06;0;0;0;0;0;0;0;0;0;0;0;0;0;0;0;0;0;0;0;0;0;0;0;0;0;0;0;0;0;0;0;0;0;0;0;0;0;0;0;133.33;373.33;613.33;853.33;1006.7;766.67;526.67;286.67;46.667;-106.67;0;0;0;0;0;0;0;0;229.06;314.27;372.68;415.74;447.9;471.4;487.5;496.9;500;496.9;487.5;471.4;447.9;415.74;372.68;314.27;229.06;0;0;0;0;0;0;0;0;0;0;0;0;0;0;0;0;0;0;0;0;0;0;0;0;0;0;0;0;0;0;0;0;0;0;0;0;0;0;0;115.56;355.56;595.56;835.56;1024.4;784.44;544.44;304.44;64.444;-124.44;0;0;0;0;0;0;0;0;229.06;314.27;372.68;415.74;447.9;471.4;487.5;496.9;500;496.9;487.5;471.4;447.9;415.74;372.68;314.27;229.06;0;0;0;0;0;0;0;0;0;0;0;0;0;0;0;0;0;0;0;0;0;0;0;0;0;0;0;0;0;0;0;0;0;0;0;0;0;0;0;97.778;337.78;577.78;817.78;1042.2;802.22;562.22;322.22;82.222;-142.22;0;0;0;0;0;0;0;0;229.06;314.27;372.68;415.74;447.9;471.4;487.5;496.9;500;496.9;487.5;471.4;447.9;415.74;372.68;314.27;229.06;0;0;0;0;0;0;0;0;0;0;0;0;0;0;0;0;0;0;0;0;0;0;0;0;0;0;0;0;0;0;0;0;0;0;0;0;0;0;0;80;320;560;800;1040;820;580;340;100;-140;80;0;0;0;0;0;0;0;229.06;314.27;372.68;415.74;447.9;471.4;487.5;496.9;500;496.9;487.5;471.4;447.9;415.74;372.68;314.27;229.06;0;0;0;0;0;0;0;0;0;0;0;0;0;0;0;0;0;0;0;0;0;0;0;0;0;0;0;0;0;0;0;0;0;0;0;0;0;0;0;62.222;302.22;542.22;782.22;1022.2;837.78;597.78;357.78;117.78;-122.22;62.222;0;0;0;0;0;0;0;229.06;314.27;372.68;415.74;447.9;471.4;487.5;496.9;500;496.9;487.5;471.4;447.9;415.74;372.68;314.27;229.06;0;0;0;0;0;0;0;0;0;0;0;0;0;0;0;0;0;0;0;0;0;0;0;0;0;0;0;0;0;0;0;0;0;0;0;0;0;0;0;44.444;284.44;524.44;764.44;1004.4;855.56;615.56;375.56;135.56;-104.44;44.444;0;0;0;0;0;0;0;229.06;314.27;372.68;415.74;447.9;471.4;487.5;496.9;500;496.9;487.5;471.4;447.9;415.74;372.68;314.27;229.06;0;0;0;0;0;0;0;0;0;0;0;0;0;0;0;0;0;0;0;0;0;0;0;0;0;0;0;0;0;0;0;0;0;0;0;0;0;0;0;26.667;266.67;506.67;746.67;986.67;873.33;633.33;393.33;153.33;-86.667;26.667;0;0;0;0;0;0;0;229.06;314.27;372.68;415.74;447.9;471.4;487.5;496.9;500;496.9;487.5;471.4;447.9;415.74;372.68;314.27;229.06;0;0;0;0;0;0;0;0;0;0;0;0;0;0;0;0;0;0;0;0;0;0;0;0;0;0;0;0;0;0;0;0;0;0;0;0;0;0;0;8.8889;248.89;488.89;728.89;968.89;891.11;651.11;411.11;171.11;-68.889;8.8889;0;0;0;0;0;0;0;229.06;314.27;372.68;415.74;447.9;471.4;487.5;496.9;500;496.9;487.5;471.4;447.9;415.74;372.68;314.27;229.06;0;0;0;0;0;0;0;0;0;0;0;0;0;0;0;0;0;0;0;0;0;0;0;0;0;0;0;0;0;0;0;0;0;0;0;0;0;0;0;0;231.11;471.11;711.11;951.11;908.89;668.89;428.89;188.89;-51.111;-8.8889;0;0;0;0;0;0;0;0;229.06;314.27;372.68;415.74;447.9;471.4;487.5;496.9;500;496.9;487.5;471.4;447.9;415.74;372.68;314.27;229.06;0;0;0;0;0;0;0;0;0;0;0;0;0;0;0;0;0;0;0;0;0;0;0;0;0;0;0;0;0;0;0;0;0;0;0;0;0;0;0;213.33;453.33;693.33;933.33;926.67;686.67;446.67;206.67;-33.333;-26.667;0;0;0;0;0;0;0;0;229.06;314.27;372.68;415.74;447.9;471.4;487.5;496.9;500;496.9;487.5;471.4;447.9;415.74;372.68;314.27;229.06;0;0;0;0;0;0;0;0;0;0;0;0;0;0;0;0;0;0;0;0;0;0;0;0;0;0;0;0;0;0;0;0;0;0;0;0;0;0;0;195.56;435.56;675.56;915.56;944.44;704.44;464.44;224.44;-15.556;-44.444;0;0;0;0;0;0;0;0;229.06;314.27;372.68;415.74;447.9;471.4;487.5;496.9;500;496.9;487.5;471.4;447.9;415.74;372.68;314.27;229.06;0;0;0;0;0;0;0;0;0;0;0;0;0;0;0;0;0;0;0;0;0;0;0;0;0;0;0;0;0;0;0;0;0;0;0;0;0;0;0;177.78;417.78;657.78;897.78;962.22;722.22;482.22;242.22;2.2222;-62.222;0;0;0;0;0;0;0;0;229.06;314.27;372.68;415.74;447.9;471.4;487.5;496.9;500;496.9;487.5;471.4;447.9;415.74;372.68;314.27;229.06;0;0;0;0;0;0;0;0;0;0;0;0;0;0;0;0;0;0;0;0;0;0;0;0;0;0;0;0;0;0;0;0;0;0;0;0;0;0;0;160;400;640;880;980;740;500;260;20;-80;0;0;0;0;0;0;0;0;229.06;314.27;372.68;415.74;447.9;471.4;487.5;496.9;500;496.9;487.5;471.4;447.9;415.74;372.68;314.27;229.06;0;0;0;0;0;0;0;0;0;0;0;0;0;0;0;0;0;0;0;0;0;0;0;0;0;0;0;0;0;0;0;0;0;0;0;0;0;0;0;142.22;382.22;622.22;862.22;997.78;757.78;517.78;277.78;37.778;-97.778;0;0;0;0;0;0;0;0;229.06;314.27;372.68;415.74;447.9;471.4;487.5;496.9;500;496.9;487.5;471.4;447.9;415.74;372.68;314.27;229.06;0;0;0;0;0;0;0;0;0;0;0;0;0;0;0;0;0;0;0;0;0;0;0;0;0;0;0;0;0;0;0;0;0;0;0;0;0;0;0;124.44;364.44;604.44;844.44;1015.6;775.56;535.56;295.56;55.556;-115.56;0;0;0;0;0;0;0;0;229.06;314.27;372.68;415.74;447.9;471.4;487.5;496.9;500;496.9;487.5;471.4;447.9;415.74;372.68;314.27;229.06;0;0;0;0;0;0;0;0;0;0;0;0;0;0;0;0;0;0;0;0;0;0;0;0;0;0;0;0;0;0;0;0;0;0;0;0;0;0;0;106.67;346.67;586.67;826.67;1033.3;793.33;553.33;313.33;73.333;-133.33;0;0;0;0;0;0;0;0;229.06;314.27;372.68;415.74;447.9;471.4;487.5;496.9;500;496.9;487.5;471.4;447.9;415.74;372.68;314.27;229.06;0;0;0;0;0;0;0;0;0;0;0;0;0;0;0;0;0;0;0;0;0;0;0;0;0;0;0;0;0;0;0;0;0;0;0;0;0;0;0;88.889;328.89;568.89;808.89;1048.9;811.11;571.11;331.11;91.111;-148.89;88.889;0;0;0;0;0;0;0;229.06;314.27;372.68;415.74;447.9;471.4;487.5;496.9;500;496.9;487.5;471.4;447.9;415.74;372.68;314.27;229.06;0;0;0;0;0;0;0;0;0;0;0;0;0;0;0;0;0;0;0;0;0;0;0;0;0;0;0;0;0;0;0;0;0;0;0;0;0;0;0;71.111;311.11;551.11;791.11;1031.1;828.89;588.89;348.89;108.89;-131.11;71.111;0;0;0;0;0;0;0;229.06;314.27;372.68;415.74;447.9;471.4;487.5;496.9;500;496.9;487.5;471.4;447.9;415.74;372.68;314.27;229.06;0;0;0;0;0;0;0;0;0;0;0;0;0;0;0;0;0;0;0;0;0;0;0;0;0;0;0;0;0;0;0;0;0;0;0;0;0;0;0;53.333;293.33;533.33;773.33;1013.3;846.67;606.67;366.67;126.67;-113.33;53.333;0;0;0;0;0;0;0;229.06;314.27;372.68;415.74;447.9;471.4;487.5;496.9;500;496.9;487.5;471.4;447.9;415.74;372.68;314.27;229.06;0;0;0;0;0;0;0;0;0;0;0;0;0;0;0;0;0;0;0;0;0;0;0;0;0;0;0;0;0;0;0;0;0;0;0;0;0;0;0;35.556;275.56;515.56;755.56;995.56;864.44;624.44;384.44;144.44;-95.556;35.556;0;0;0;0;0;0;0;229.06;314.27;372.68;415.74;447.9;471.4;487.5;496.9;500;496.9;487.5;471.4;447.9;415.74;372.68;314.27;229.06;0;0;0;0;0;0;0;0;0;0;0;0;0;0;0;0;0;0;0;0;0;0;0;0;0;0;0;0;0;0;0;0;0;0;0;0;0;0;0;17.778;257.78;497.78;737.78;977.78;882.22;642.22;402.22;162.22;-77.778;17.778;0;0;0;0;0;0;0;229.06;314.27;372.68;415.74;447.9;471.4;487.5;496.9;500;496.9;487.5;471.4;447.9;415.74;372.68;314.27;229.06;0;0;0;0;0;0;0;0;0;0;0;0;0;0;0;0;0;0;0;0;0;0;0;0;0;0;0;0;0;0;0;0;0;0;0;0;0;0;0;8.8476e-09;240;480;720;960;900;660;420;180;-60;8.8476e-09;0;0;0;0;0;0;0;229.06;314.27;372.68;415.74;447.9;471.4;487.5;496.9;500;496.9;487.5;471.4;447.9;415.74;372.68;314.27;229.06;0;0;0;0;0;0;0;0;0;0;0;0;0;0;0;0;0;0;0;0;0;0;0;0;0;0;0;0;0;0;0;0;0;0;0;0;0;0;0;0;222.22;462.22;702.22;942.22;917.78;677.78;437.78;197.78;-42.222;-17.778;0;0;0;0;0;0;0;0;229.06;314.27;372.68;415.74;447.9;471.4;487.5;496.9;500;496.9;487.5;471.4;447.9;415.74;372.68;314.27;229.06;0;0;0;0;0;0;0;0;0;0;0;0;0;0;0;0;0;0;0;0;0;0;0;0;0;0;0;0;0;0;0;0;0;0;0;0;0;0;0;204.44;444.44;684.44;924.44;935.56;695.56;455.56;215.56;-24.444;-35.556;0;0;0;0;0;0;0;0;229.06;314.27;372.68;415.74;447.9;471.4;487.5;496.9;500;496.9;487.5;471.4;447.9;415.74;372.68;314.27;229.06;0;0;0;0;0;0;0;0;0;0;0;0;0;0;0;0;0;0;0;0;0;0;0;0;0;0;0;0;0;0;0;0;0;0;0;0;0;0;0;186.67;426.67;666.67;906.67;953.33;713.33;473.33;233.33;-6.6667;-53.333;0;0;0;0;0;0;0;0;229.06;314.27;372.68;415.74;447.9;471.4;487.5;496.9;500;496.9;487.5;471.4;447.9;415.74;372.68;314.27;229.06;0;0;0;0;0;0;0;0;0;0;0;0;0;0;0;0;0;0;0;0;0;0;0;0;0;0;0;0;0;0;0;0;0;0;0;0;0;0;0;168.89;408.89;648.89;888.89;971.11;731.11;491.11;251.11;11.111;-71.111;0;0;0;0;0;0;0;0;229.06;314.27;372.68;415.74;447.9;471.4;487.5;496.9;500;496.9;487.5;471.4;447.9;415.74;372.68;314.27;229.06;0;0;0;0;0;0;0;0;0;0;0;0;0;0;0;0;0;0;0;0;0;0;0;0;0;0;0;0;0;0;0;0;0;0;0;0;0;0;0;151.11;391.11;631.11;871.11;988.89;748.89;508.89;268.89;28.889;-88.889;0;0;0;0;0;0;0;0;229.06;314.27;372.68;415.74;447.9;471.4;487.5;496.9;500;496.9;487.5;471.4;447.9;415.74;372.68;314.27;229.06;0;0;0;0;0;0;0;0;0;0;0;0;0;0;0;0;0;0;0;0;0;0;0;0;0;0;0;0;0;0;0;0;0;0;0;0;0;0;0;133.33;373.33;613.33;853.33;1006.7;766.67;526.67;286.67;46.667;-106.67;0;0;0;0;0;0;0;0;229.06;314.27;372.68;415.74;447.9;471.4;487.5;496.9;500;496.9;487.5;471.4;447.9;415.74;372.68;314.27;229.06;0;0;0;0;0;0;0;0;0;0;0;0;0;0;0;0;0;0;0;0;0;0;0;0;0;0;0;0;0;0;0;0;0;0;0;0;0;0;0;115.56;355.56;595.56;835.56;1024.4;784.44;544.44;304.44;64.444;-124.44;0;0;0;0;0;0;0;0;229.06;314.27;372.68;415.74;447.9;471.4;487.5;496.9;500;496.9;487.5;471.4;447.9;415.74;372.68;314.27;229.06;0;0;0;0;0;0;0;0;0;0;0;0;0;0;0;0;0;0;0;0;0;0;0;0;0;0;0;0;0;0;0;0;0;0;0;0;0;0;0;97.778;337.78;577.78;817.78;1042.2;802.22;562.22;322.22;82.222;-142.22;0;0;0;0;0;0;0;0;229.06;314.27;372.68;415.74;447.9;471.4;487.5;496.9;500;496.9;487.5;471.4;447.9;415.74;372.68;314.27;229.06;0;0;0;0;0;0;0;0;0;0;0;0;0;0;0;0;0;0;0;0;0;0;0;0;0;0;0;0;0;0;0;0;0;0;0;0;0;0;0;80;320;560;800;1040;820;580;340;100;-140;80;0;0;0;0;0;0;0;229.06;314.27;372.68;415.74;447.9;471.4;487.5;496.9;500;496.9;487.5;471.4;447.9;415.74;372.68;314.27;229.06;0;0;0;0;0;0;0;0;0;0;0;0;0;0;0;0;0;0;0;0;0;0;0;0;0;0;0;0;0;0;0;0;0;0;0;0;0;0;0;62.222;302.22;542.22;782.22;1022.2;837.78;597.78;357.78;117.78;-122.22;62.222;0;0;0;0;0;0;0;229.06;314.27;372.68;415.74;447.9;471.4;487.5;496.9;500;496.9;487.5;471.4;447.9;415.74;372.68;314.27;229.06;0;0;0;0;0;0;0;0;0;0;0;0;0;0;0;0;0;0;0;0;0;0;0;0;0;0;0;0;0;0;0;0;0;0;0;0;0;0;0;44.444;284.44;524.44;764.44;1004.4;855.56;615.56;375.56;135.56;-104.44;44.444;0;0;0;0;0;0;0;229.06;314.27;372.68;415.74;447.9;471.4;487.5;496.9;500;496.9;487.5;471.4;447.9;415.74;372.68;314.27;229.06;0;0;0;0;0;0;0;0;0;0;0;0;0;0;0;0;0;0;0;0;0;0;0;0;0;0;0;0;0;0;0;0;0;0;0;0;0;0;0;26.667;266.67;506.67;746.67;986.67;873.33;633.33;393.33;153.33;-86.667;26.667;0;0;0;0;0;0;0;229.06;314.27;372.68;415.74;447.9;471.4;487.5;496.9;500;496.9;487.5;471.4;447.9;415.74;372.68;314.27;229.06;0;0;0;0;0;0;0;0;0;0;0;0;0;0;0;0;0;0;0;0;0;0;0;0;0;0;0;0;0;0;0;0;0;0;0;0;0;0;0;8.8889;248.89;488.89;728.89;968.89;891.11;651.11;411.11;171.11;-68.889;8.8889;0;0;0;0;0;0;0;229.06;314.27;372.68;415.74;447.9;471.4;487.5;496.9;500;496.9;487.5;471.4;447.9;415.74;372.68;314.27;229.06;0;0;0;0;0;0;0;0;0;0;0;0;0;0;0;0;0;0;0;0;0;0;0;0;0;0;0;0;0;0;0;0;0;0;0;0;0;0;0;0;231.11;471.11;711.11;951.11;908.89;668.89;428.89;188.89;-51.111;-8.8889;0;0;0;0;0;0;0;0;229.06;314.27;372.68;415.74;447.9;471.4;487.5;496.9;500;496.9;487.5;471.4;447.9;415.74;372.68;314.27;229.06;0;0;0;0;0;0;0;0;0;0;0;0;0;0;0;0;0;0;0;0;0;0;0;0;0;0;0;0;0;0;0;0;0;0;0;0;0;0;0;213.33;453.33;693.33;933.33;926.67;686.67;446.67;206.67;-33.333;-26.667;0;0;0;0;0;0;0;0;229.06;314.27;372.68;415.74;447.9;471.4;487.5;496.9;500;496.9;487.5;471.4;447.9;415.74;372.68;314.27;229.06;0;0;0;0;0;0;0;0;0;0;0;0;0;0;0;0;0;0;0;0;0;0;0;0;0;0;0;0;0;0;0;0;0;0;0;0;0;0;0;195.56;435.56;675.56;915.56;944.44;704.44;464.44;224.44;-15.556;-44.444;0;0;0;0;0;0;0;0;229.06;314.27;372.68;415.74;447.9;471.4;487.5;496.9;500;496.9;487.5;471.4;447.9;415.74;372.68;314.27;229.06;0;0;0;0;0;0;0;0;0;0;0;0;0;0;0;0;0;0;0;0;0;0;0;0;0;0;0;0;0;0;0;0;0;0;0;0;0;0;0;177.78;417.78;657.78;897.78;962.22;722.22;482.22;242.22;2.2222;-62.222;0;0;0;0;0;0;0;0;229.06;314.27;372.68;415.74;447.9;471.4;487.5;496.9;500;496.9;487.5;471.4;447.9;415.74;372.68;314.27;229.06;0;0;0;0;0;0;0;0;0;0;0;0;0;0;0;0;0;0;0;0;0;0;0;0;0;0;0;0;0;0;0;0;0;0;0;0;0;0;0;160;400;640;880;980;740;500;260;20;-80;0;0;0;0;0;0;0;0;229.06;314.27;372.68;415.74;447.9;471.4;487.5;496.9;500;496.9;487.5;471.4;447.9;415.74;372.68;314.27;229.06;0;0;0;0;0;0;0;0;0;0;0;0;0;0;0;0;0;0;0;0;0;0;0;0;0;0;0;0;0;0;0;0;0;0;0;0;0;0;0;142.22;382.22;622.22;862.22;997.78;757.78;517.78;277.78;37.778;-97.778;0;0;0;0;0;0;0;0;229.06;314.27;372.68;415.74;447.9;471.4;487.5;496.9;500;496.9;487.5;471.4;447.9;415.74;372.68;314.27;229.06;0;0;0;0;0;0;0;0;0;0;0;0;0;0;0;0;0;0;0;0;0;0;0;0;0;0;0;0;0;0;0;0;0;0;0;0;0;0;0;124.44;364.44;604.44;844.44;1015.6;775.56;535.56;295.56;55.556;-115.56;0;0;0;0;0;0;0;0;229.06;314.27;372.68;415.74;447.9;471.4;487.5;496.9;500;496.9;487.5;471.4;447.9;415.74;372.68;314.27;229.06;0;0;0;0;0;0;0;0;0;0;0;0;0;0;0;0;0;0;0;0;0;0;0;0;0;0;0;0;0;0;0;0;0;0;0;0;0;0;0;106.67;346.67;586.67;826.67;1033.3;793.33;553.33;313.33;73.333;-133.33;0;0;0;0;0;0;0;0;229.06;314.27;372.68;415.74;447.9;471.4;487.5;496.9;500;496.9;487.5;471.4;447.9;415.74;372.68;314.27;229.06;0;0;0;0;0;0;0;0;0;0;0;0;0;0;0;0;0;0;0;0;0;0;0;0;0;0;0;0;0;0;0;0;0;0;0;0;0;0;0;88.889;328.89;568.89;808.89;1048.9;811.11;571.11;331.11;91.111;-148.89;88.889;0;0;0;0;0;0;0;229.06;314.27;372.68;415.74;447.9;471.4;487.5;496.9;500;496.9;487.5;471.4;447.9;415.74;372.68;314.27;229.06;0;0;0;0;0;0;0;0;0;0;0;0;0;0;0;0;0;0;0;0;0;0;0;0;0;0;0;0;0;0;0;0;0;0;0;0;0;0;0;71.111;311.11;551.11;791.11;1031.1;828.89;588.89;348.89;108.89;-131.11;71.111;0;0;0;0;0;0;0;229.06;314.27;372.68;415.74;447.9;471.4;487.5;496.9;500;496.9;487.5;471.4;447.9;415.74;372.68;314.27;229.06;0;0;0;0;0;0;0;0;0;0;0;0;0;0;0;0;0;0;0;0;0;0;0;0;0;0;0;0;0;0;0;0;0;0;0;0;0;0;0;53.333;293.33;533.33;773.33;1013.3;846.67;606.67;366.67;126.67;-113.33;53.333;0;0;0;0;0;0;0;229.06;314.27;372.68;415.74;447.9;471.4;487.5;496.9;500;496.9;487.5;471.4;447.9;415.74;372.68;314.27;229.06;0;0;0;0;0;0;0;0;0;0;0;0;0;0;0;0;0;0;0;0;0;0;0;0;0;0;0;0;0;0;0;0;0;0;0;0;0;0;0;35.556;275.56;515.56;755.56;995.56;864.44;624.44;384.44;144.44;-95.556;35.556;0;0;0;0;0;0;0;229.06;314.27;372.68;415.74;447.9;471.4;487.5;496.9;500;496.9;487.5;471.4;447.9;415.74;372.68;314.27;229.06;0;0;0;0;0;0;0;0;0;0;0;0;0;0;0;0;0;0;0;0;0;0;0;0;0;0;0;0;0;0;0;0;0;0;0;0;0;0;0;17.778;257.78;497.78;737.78;977.78;882.22;642.22;402.22;162.22;-77.778;17.778;0;0;0;0;0;0;0;229.06;314.27;372.68;415.74;447.9;471.4;487.5;496.9;500;496.9;487.5;471.4;447.9;415.74;372.68;314.27;229.06;0;0;0;0;0;0;0;0;0;0;0;0;0;0;0;0;0;0;0;0;0;0;0;0;0;0;0;0;0;0;0;0;0;0;0;0;0;0;0;1.3504e-08;240;480;720;960;900;660;420;180;-60;1.3504e-08;0;0;0;0;0;0;0;229.06;314.27;372.68;415.74;447.9;471.4;487.5;496.9;500;496.9;487.5;471.4;447.9;415.74;372.68;314.27;229.06;0;0;0;0;0;0;0;0;0;0;0;0;0;0;0;0;0;0;0;0;0;0;0;0;0;0;0;0;0;0;0;0;0;0;0;0;0;0;0;0;222.22;462.22;702.22;942.22;917.78;677.78;437.78;197.78;-42.222;-17.778;0;0;0;0;0;0;0;0;229.06;314.27;372.68;415.74;447.9;471.4;487.5;496.9;500;496.9;487.5;471.4;447.9;415.74;372.68;314.27;229.06;0;0;0;0;0;0;0;0;0;0;0;0;0;0;0;0;0;0;0;0;0;0;0;0;0;0;0;0;0;0;0;0;0;0;0;0;0;0;0;204.44;444.44;684.44;924.44;935.56;695.56;455.56;215.56;-24.444;-35.556;0;0;0;0;0;0;0;0;229.06;314.27;372.68;415.74;447.9;471.4;487.5;496.9;500;496.9;487.5;471.4;447.9;415.74;372.68;314.27;229.06;0;0;0;0;0;0;0;0;0;0;0;0;0;0;0;0;0;0;0;0;0;0;0;0;0;0;0;0;0;0;0;0;0;0;0;0;0;0;0;186.67;426.67;666.67;906.67;953.33;713.33;473.33;233.33;-6.6667;-53.333;0;0;0;0;0;0;0;0;229.06;314.27;372.68;415.74;447.9;471.4;487.5;496.9;500;496.9;487.5;471.4;447.9;415.74;372.68;314.27;229.06;0;0;0;0;0;0;0;0;0;0;0;0;0;0;0;0;0;0;0;0;0;0;0;0;0;0;0;0;0;0;0;0;0;0;0;0;0;0;0;168.89;408.89;648.89;888.89;971.11;731.11;491.11;251.11;11.111;-71.111;0;0;0;0;0;0;0;0;229.06;314.27;372.68;415.74;447.9;471.4;487.5;496.9;500;496.9;487.5;471.4;447.9;415.74;372.68;314.27;229.06;0;0;0;0;0;0;0;0;0;0;0;0;0;0;0;0;0;0;0;0;0;0;0;0;0;0;0;0;0;0;0;0;0;0;0;0;0;0;0;151.11;391.11;631.11;871.11;988.89;748.89;508.89;268.89;28.889;-88.889;0;0;0;0;0;0;0;0;229.06;314.27;372.68;415.74;447.9;471.4;487.5;496.9;500;496.9;487.5;471.4;447.9;415.74;372.68;314.27;229.06;0;0;0;0;0;0;0;0;0;0;0;0;0;0;0;0;0;0;0;0;0;0;0;0;0;0;0;0;0;0;0;0;0;0;0;0;0;0;0;133.33;373.33;613.33;853.33;1006.7;766.67;526.67;286.67;46.667;-106.67;0;0;0;0;0;0;0;0;229.06;314.27;372.68;415.74;447.9;471.4;487.5;496.9;500;496.9;487.5;471.4;447.9;415.74;372.68;314.27;229.06;0;0;0;0;0;0;0;0;0;0;0;0;0;0;0;0;0;0;0;0;0;0;0;0;0;0;0;0;0;0;0;0;0;0;0;0;0;0;0;115.56;355.56;595.56;835.56;1024.4;784.44;544.44;304.44;64.444;-124.44;0;0;0;0;0;0;0;0;229.06;314.27;372.68;415.74;447.9;471.4;487.5;496.9;500;496.9;487.5;471.4;447.9;415.74;372.68;314.27;229.06;0;0;0;0;0;0;0;0;0;0;0;0;0;0;0;0;0;0;0;0;0;0;0;0;0;0;0;0;0;0;0;0;0;0;0;0;0;0;0;97.778;337.78;577.78;817.78;1042.2;802.22;562.22;322.22;82.222;-142.22;0;0;0;0;0;0;0;0;229.06;314.27;372.68;415.74;447.9;471.4;487.5;496.9;500;496.9;487.5;471.4;447.9;415.74;372.68;314.27;229.06;0;0;0;0;0;0;0;0;0;0;0;0;0;0;0;0;0;0;0;0;0;0;0;0;0;0;0;0;0;0;0;0;0;0;0;0;0;0;0;80;320;560;800;1040;820;580;340;100;-140;80;0;0;0;0;0;0;0;229.06;314.27;372.68;415.74;447.9;471.4;487.5;496.9;500;496.9;487.5;471.4;447.9;415.74;372.68;314.27;229.06;0;0;0;0;0;0;0;0;0;0;0;0;0;0;0;0;0;0;0;0;0;0;0;0;0;0;0;0;0;0;0;0;0;0;0;0;0;0;0;62.222;302.22;542.22;782.22;1022.2;837.78;597.78;357.78;117.78;-122.22;62.222;0;0;0;0;0;0;0;229.06;314.27;372.68;415.74;447.9;471.4;487.5;496.9;500;496.9;487.5;471.4;447.9;415.74;372.68;314.27;229.06;0;0;0;0;0;0;0;0;0;0;0;0;0;0;0;0;0;0;0;0;0;0;0;0;0;0;0;0;0;0;0;0;0;0;0;0;0;0;0;44.444;284.44;524.44;764.44;1004.4;855.56;615.56;375.56;135.56;-104.44;44.444;0;0;0;0;0;0;0;229.06;314.27;372.68;415.74;447.9;471.4;487.5;496.9;500;496.9;487.5;471.4;447.9;415.74;372.68;314.27;229.06;0;0;0;0;0;0;0;0;0;0;0;0;0;0;0;0;0;0;0;0;0;0;0;0;0;0;0;0;0;0;0;0;0;0;0;0;0;0;0;26.667;266.67;506.67;746.67;986.67;873.33;633.33;393.33;153.33;-86.667;26.667;0;0;0;0;0;0;0;229.06;314.27;372.68;415.74;447.9;471.4;487.5;496.9;500;496.9;487.5;471.4;447.9;415.74;372.68;314.27;229.06;0;0;0;0;0;0;0;0;0;0;0;0;0;0;0;0;0;0;0;0;0;0;0;0;0;0;0;0;0;0;0;0;0;0;0;0;0;0;0;8.8889;248.89;488.89;728.89;968.89;891.11;651.11;411.11;171.11;-68.889;8.8889;0;0;0;0;0;0;0;229.06;314.27;372.68;415.74;447.9;471.4;487.5;496.9;500;496.9;487.5;471.4;447.9;415.74;372.68;314.27;229.06;0;0;0;0;0;0;0;0;0;0;0;0;0;0;0;0;0;0;0;0;0;0;0;0;0;0;0;0;0;0;0;0;0;0;0;0;0;0;0;0;231.11;471.11;711.11;951.11;908.89;668.89;428.89;188.89;-51.111;-8.8889;0;0;0;0;0;0;0;0;229.06;314.27;372.68;415.74;447.9;471.4;487.5;496.9;500;496.9;487.5;471.4;447.9;415.74;372.68;314.27;229.06;0;0;0;0;0;0;0;0;0;0;0;0;0;0;0;0;0;0;0;0;0;0;0;0;0;0;0;0;0;0;0;0;0;0;0;0;0;0;0;213.33;453.33;693.33;933.33;926.67;686.67;446.67;206.67;-33.333;-26.667;0;0;0;0;0;0;0;0;229.06;314.27;372.68;415.74;447.9;471.4;487.5;496.9;500;496.9;487.5;471.4;447.9;415.74;372.68;314.27;229.06;0;0;0;0;0;0;0;0;0;0;0;0;0;0;0;0;0;0;0;0;0;0;0;0;0;0;0;0;0;0;0;0;0;0;0;0;0;0;0;195.56;435.56;675.56;915.56;944.44;704.44;464.44;224.44;-15.556;-44.444;0;0;0;0;0;0;0;0;229.06;314.27;372.68;415.74;447.9;471.4;487.5;496.9;500;496.9;487.5;471.4;447.9;415.74;372.68;314.27;229.06;0;0;0;0;0;0;0;0;0;0;0;0;0;0;0;0;0;0;0;0;0;0;0;0;0;0;0;0;0;0;0;0;0;0;0;0;0;0;0;177.78;417.78;657.78;897.78;962.22;722.22;482.22;242.22;2.2222;-62.222;0;0;0;0;0;0;0;0;229.06;314.27;372.68;415.74;447.9;471.4;487.5;496.9;500;496.9;487.5;471.4;447.9;415.74;372.68;314.27;229.06;0;0;0;0;0;0;0;0;0;0;0;0;0;0;0;0;0;0;0;0;0;0;0;0;0;0;0;0;0;0;0;0;0;0;0;0;0;0;0;160;400;640;880;980;740;500;260;20;-80;0;0;0;0;0;0;0;0;229.06;314.27;372.68;415.74;447.9;471.4;487.5;496.9;500;496.9;487.5;471.4;447.9;415.74;372.68;314.27;229.06;0;0;0;0;0;0;0;0;0;0;0;0;0;0;0;0;0;0;0;0;0;0;0;0;0;0;0;0;0;0;0;0;0;0;0;0;0;0;0;142.22;382.22;622.22;862.22;997.78;757.78;517.78;277.78;37.778;-97.778;0;0;0;0;0;0;0;0;229.06;314.27;372.68;415.74;447.9;471.4;487.5;496.9;500;496.9;487.5;471.4;447.9;415.74;372.68;314.27;229.06;0;0;0;0;0;0;0;0;0;0;0;0;0;0;0;0;0;0;0;0;0;0;0;0;0;0;0;0;0;0;0;0;0;0;0;0;0;0;0;124.44;364.44;604.44;844.44;1015.6;775.56;535.56;295.56;55.556;-115.56;0;0;0;0;0;0;0;0;229.06;314.27;372.68;415.74;447.9;471.4;487.5;496.9;500;496.9;487.5;471.4;447.9;415.74;372.68;314.27;229.06;0;0;0;0;0;0;0;0;0;0;0;0;0;0;0;0;0;0;0;0;0;0;0;0;0;0;0;0;0;0;0;0;0;0;0;0;0;0;0;106.67;346.67;586.67;826.67;1033.3;793.33;553.33;313.33;73.333;-133.33;0;0;0;0;0;0;0;0;229.06;314.27;372.68;415.74;447.9;471.4;487.5;496.9;500;496.9;487.5;471.4;447.9;415.74;372.68;314.27;229.06;0;0;0;0;0;0;0;0;0;0;0;0;0;0;0;0;0;0;0;0;0;0;0;0;0;0;0;0;0;0;0;0;0;0;0;0;0;0;0;88.889;328.89;568.89;808.89;1048.9;811.11;571.11;331.11;91.111;-148.89;88.889;0;0;0;0;0;0;0;229.06;314.27;372.68;415.74;447.9;471.4;487.5;496.9;500;496.9;487.5;471.4;447.9;415.74;372.68;314.27;229.06;0;0;0;0;0;0;0;0;0;0;0;0;0;0;0;0;0;0;0;0;0;0;0;0;0;0;0;0;0;0;0;0;0;0;0;0;0;0;0;71.111;311.11;551.11;791.11;1031.1;828.89;588.89;348.89;108.89;-131.11;71.111;0;0;0;0;0;0;0;229.06;314.27;372.68;415.74;447.9;471.4;487.5;496.9;500;496.9;487.5;471.4;447.9;415.74;372.68;314.27;229.06;0;0;0;0;0;0;0;0;0;0;0;0;0;0;0;0;0;0;0;0;0;0;0;0;0;0;0;0;0;0;0;0;0;0;0;0;0;0;0;53.333;293.33;533.33;773.33;1013.3;846.67;606.67;366.67;126.67;-113.33;53.333;0;0;0;0;0;0;0;229.06;314.27;372.68;415.74;447.9;471.4;487.5;496.9;500;496.9;487.5;471.4;447.9;415.74;372.68;314.27;229.06;0;0;0;0;0;0;0;0;0;0;0;0;0;0;0;0;0;0;0;0;0;0;0;0;0;0;0;0;0;0;0;0;0;0;0;0;0;0;0;35.556;275.56;515.56;755.56;995.56;864.44;624.44;384.44;144.44;-95.556;35.556;0;0;0;0;0;0;0;229.06;314.27;372.68;415.74;447.9;471.4;487.5;496.9;500;496.9;487.5;471.4;447.9;415.74;372.68;314.27;229.06;0;0;0;0;0;0;0;0;0;0;0;0;0;0;0;0;0;0;0;0;0;0;0;0;0;0;0;0;0;0;0;0;0;0;0;0;0;0;0;17.778;257.78;497.78;737.78;977.78;882.22;642.22;402.22;162.22;-77.778;17.778;0;0;0;0;0;0;0;229.06;314.27;372.68;415.74;447.9;471.4;487.5;496.9;500;496.9;487.5;471.4;447.9;415.74;372.68;314.27;229.06;0;0;0;0;0;0;0;0;0;0;0;0;0;0;0;0;0;0;0;0;0;0;0;0;0;0;0;0;0;0;0;0;0;0;0;0;0;0;0;1.8161e-08;240;480;720;960;900;660;420;180;-60;1.8626e-08;0;0;0;0;0;0;0;229.06;314.27;372.68;415.74;447.9;471.4;487.5;496.9;500;496.9;487.5;471.4;447.9;415.74;372.68;314.27;229.06;0;0;0;0;0;0;0;0;0;0;0;0;0;0;0;0;0;0;0;0;0;0;0;0;0;0;0;0;0;0;0;0;0;0;0;0;0;0;0;0;222.22;462.22;702.22;942.22;917.78;677.78;437.78;197.78;-42.222;-17.778;0;0;0;0;0;0;0;0;229.06;314.27;372.68;415.74;447.9;471.4;487.5;496.9;500;496.9;487.5;471.4;447.9;415.74;372.68;314.27;229.06;0;0;0;0;0;0;0;0;0;0;0;0;0;0;0;0;0;0;0;0;0;0;0;0;0;0;0;0;0;0;0;0;0;0;0;0;0;0;0;204.44;444.44;684.44;924.44;935.56;695.56;455.56;215.56;-24.444;-35.556;0;0;0;0;0;0;0;0;229.06;314.27;372.68;415.74;447.9;471.4;487.5;496.9;500;496.9;487.5;471.4;447.9;415.74;372.68;314.27;229.06;0;0;0;0;0;0;0;0;0;0;0;0;0;0;0;0;0;0;0;0;0;0;0;0;0;0;0;0;0;0;0;0;0;0;0;0;0;0;0;186.67;426.67;666.67;906.67;953.33;713.33;473.33;233.33;-6.6667;-53.333;0;0;0;0;0;0;0;0;229.06;314.27;372.68;415.74;447.9;471.4;487.5;496.9;500;496.9;487.5;471.4;447.9;415.74;372.68;314.27;229.06;0;0;0;0;0;0;0;0;0;0;0;0;0;0;0;0;0;0;0;0;0;0;0;0;0;0;0;0;0;0;0;0;0;0;0;0;0;0;0;168.89;408.89;648.89;888.89;971.11;731.11;491.11;251.11;11.111;-71.111;0;0;0;0;0;0;0;0;229.06;314.27;372.68;415.74;447.9;471.4;487.5;496.9;500;496.9;487.5;471.4;447.9;415.74;372.68;314.27;229.06;0;0;0;0;0;0;0;0;0;0;0;0;0;0;0;0;0;0;0;0;0;0;0;0;0;0;0;0;0;0;0;0;0;0;0;0;0;0;0;151.11;391.11;631.11;871.11;988.89;748.89;508.89;268.89;28.889;-88.889;0;0;0;0;0;0;0;0;229.06;314.27;372.68;415.74;447.9;471.4;487.5;496.9;500;496.9;487.5;471.4;447.9;415.74;372.68;314.27;229.06;0;0;0;0;0;0;0;0;0;0;0;0;0;0;0;0;0;0;0;0;0;0;0;0;0;0;0;0;0;0;0;0;0;0;0;0;0;0;0;133.33;373.33;613.33;853.33;1006.7;766.67;526.67;286.67;46.667;-106.67;0;0;0;0;0;0;0;0;229.06;314.27;372.68;415.74;447.9;471.4;487.5;496.9;500;496.9;487.5;471.4;447.9;415.74;372.68;314.27;229.06;0;0;0;0;0;0;0;0;0;0;0;0;0;0;0;0;0;0;0;0;0;0;0;0;0;0;0;0;0;0;0;0;0;0;0;0;0;0;0;115.56;355.56;595.56;835.56;1024.4;784.44;544.44;304.44;64.444;-124.44;0;0;0;0;0;0;0;0;229.06;314.27;372.68;415.74;447.9;471.4;487.5;496.9;500;496.9;487.5;471.4;447.9;415.74;372.68;314.27;229.06;0;0;0;0;0;0;0;0;0;0;0;0;0;0;0;0;0;0;0;0;0;0;0;0;0;0;0;0;0;0;0;0;0;0;0;0;0;0;0;97.778;337.78;577.78;817.78;1042.2;802.22;562.22;322.22;82.222;-142.22;0;0;0;0;0;0;0;0;229.06;314.27;372.68;415.74;447.9;471.4;487.5;496.9;500;496.9;487.5;471.4;447.9;415.74;372.68;314.27;229.06;0;0;0;0;0;0;0;0;0;0;0;0;0;0;0;0;0;0;0;0;0;0;0;0;0;0;0;0;0;0;0;0;0;0;0;0;0;0;0;80;320;560;800;1040;820;580;340;100;-140;80;0;0;0;0;0;0;0;229.06;314.27;372.68;415.74;447.9;471.4;487.5;496.9;500;496.9;487.5;471.4;447.9;415.74;372.68;314.27;229.06;0;0;0;0;0;0;0;0;0;0;0;0;0;0;0;0;0;0;0;0;0;0;0;0;0;0;0;0;0;0;0;0;0;0;0;0;0;0;0;62.222;302.22;542.22;782.22;1022.2;837.78;597.78;357.78;117.78;-122.22;62.222;0;0;0;0;0;0;0;229.06;314.27;372.68;415.74;447.9;471.4;487.5;496.9;500;496.9;487.5;471.4;447.9;415.74;372.68;314.27;229.06;0;0;0;0;0;0;0;0;0;0;0;0;0;0;0;0;0;0;0;0;0;0;0;0;0;0;0;0;0;0;0;0;0;0;0;0;0;0;0;44.444;284.44;524.44;764.44;1004.4;855.56;615.56;375.56;135.56;-104.44;44.444;0;0;0;0;0;0;0;229.06;314.27;372.68;415.74;447.9;471.4;487.5;496.9;500;496.9;487.5;471.4;447.9;415.74;372.68;314.27;229.06;0;0;0;0;0;0;0;0;0;0;0;0;0;0;0;0;0;0;0;0;0;0;0;0;0;0;0;0;0;0;0;0;0;0;0;0;0;0;0;26.667;266.67;506.67;746.67;986.67;873.33;633.33;393.33;153.33;-86.667;26.667;0;0;0;0;0;0;0;229.06;314.27;372.68;415.74;447.9;471.4;487.5;496.9;500;496.9;487.5;471.4;447.9;415.74;372.68;314.27;229.06;0;0;0;0;0;0;0;0;0;0;0;0;0;0;0;0;0;0;0;0;0;0;0;0;0;0;0;0;0;0;0;0;0;0;0;0;0;0;0;8.8889;248.89;488.89;728.89;968.89;891.11;651.11;411.11;171.11;-68.889;8.8889;0;0;0;0;0;0;0;229.06;314.27;372.68;415.74;447.9;471.4;487.5;496.9;500;496.9;487.5;471.4;447.9;415.74;372.68;314.27;229.06;0;0;0;0;0;0;0;0;0;0;0;0;0;0;0;0;0;0;0;0;0;0;0;0;0;0;0;0;0;0;0;0;0;0;0;0;0;0;0;0;231.11;471.11;711.11;951.11;908.89;668.89;428.89;188.89;-51.111;-8.8889;0;0;0;0;0;0;0;0;229.06;314.27;372.68;415.74;447.9;471.4;487.5;496.9;500;496.9;487.5;471.4;447.9;415.74;372.68;314.27;229.06;0;0;0;0;0;0;0;0;0;0;0;0;0;0;0;0;0;0;0;0;0;0;0;0;0;0;0;0;0;0;0;0;0;0;0;0;0;0;0;213.33;453.33;693.33;933.33;926.67;686.67;446.67;206.67;-33.333;-26.667;0;0;0;0;0;0;0;0;229.06;314.27;372.68;415.74;447.9;471.4;487.5;496.9;500;496.9;487.5;471.4;447.9;415.74;372.68;314.27;229.06;0;0;0;0;0;0;0;0;0;0;0;0;0;0;0;0;0;0;0;0;0;0;0;0;0;0;0;0;0;0;0;0;0;0;0;0;0;0;0;195.56;435.56;675.56;915.56;944.44;704.44;464.44;224.44;-15.556;-44.444;0;0;0;0;0;0;0;0;229.06;314.27;372.68;415.74;447.9;471.4;487.5;496.9;500;496.9;487.5;471.4;447.9;415.74;372.68;314.27;229.06;0;0;0;0;0;0;0;0;0;0;0;0;0;0;0;0;0;0;0;0;0;0;0;0;0;0;0;0;0;0;0;0;0;0;0;0;0;0;0;177.78;417.78;657.78;897.78;962.22;722.22;482.22;242.22;2.2222;-62.222;0;0;0;0;0;0;0;0;229.06;314.27;372.68;415.74;447.9;471.4;487.5;496.9;500;496.9;487.5;471.4;447.9;415.74;372.68;314.27;229.06;0;0;0;0;0;0;0;0;0;0;0;0;0;0;0;0;0;0;0;0;0;0;0;0;0;0;0;0;0;0;0;0;0;0;0;0;0;0;0;160;400;640;880;980;740;500;260;20;-80;0;0;0;0;0;0;0;0;229.06;314.27;372.68;415.74;447.9;471.4;487.5;496.9;500;496.9;487.5;471.4;447.9;415.74;372.68;314.27;229.06;0;0;0;0;0;0;0;0;0;0;0;0;0;0;0;0;0;0;0;0;0;0;0;0;0;0;0;0;0;0;0;0;0;0;0;0;0;0;0;142.22;382.22;622.22;862.22;997.78;757.78;517.78;277.78;37.778;-97.778;0;0;0;0;0;0;0;0;229.06;314.27;372.68;415.74;447.9;471.4;487.5;496.9;500;496.9;487.5;471.4;447.9;415.74;372.68;314.27;229.06;0;0;0;0;0;0;0;0;0;0;0;0;0;0;0;0;0;0;0;0;0;0;0;0;0;0;0;0;0;0;0;0;0;0;0;0;0;0;0;124.44;364.44;604.44;844.44;1015.6;775.56;535.56;295.56;55.556;-115.56;0;0;0;0;0;0;0;0;229.06;314.27;372.68;415.74;447.9;471.4;487.5;496.9;500;496.9;487.5;471.4;447.9;415.74;372.68;314.27;229.06;0;0;0;0;0;0;0;0;0;0;0;0;0;0;0;0;0;0;0;0;0;0;0;0;0;0;0;0;0;0;0;0;0;0;0;0;0;0;0;106.67;346.67;586.67;826.67;1033.3;793.33;553.33;313.33;73.333;-133.33;0;0;0;0;0;0;0;0;229.06;314.27;372.68;415.74;447.9;471.4;487.5;496.9;500;496.9;487.5;471.4;447.9;415.74;372.68;314.27;229.06;0;0;0;0;0;0;0;0;0;0;0;0;0;0;0;0;0;0;0;0;0;0;0;0;0;0;0;0;0;0;0;0;0;0;0;0;0;0;0;88.889;328.89;568.89;808.89;1048.9;811.11;571.11;331.11;91.111;-148.89;88.889;0;0;0;0;0;0;0;229.06;314.27;372.68;415.74;447.9;471.4;487.5;496.9;500;496.9;487.5;471.4;447.9;415.74;372.68;314.27;229.06;0;0;0;0;0;0;0;0;0;0;0;0;0;0;0;0;0;0;0;0;0;0;0;0;0;0;0;0;0;0;0;0;0;0;0;0;0;0;0;71.111;311.11;551.11;791.11;1031.1;828.89;588.89;348.89;108.89;-131.11;71.111;0;0;0;0;0;0;0;229.06;314.27;372.68;415.74;447.9;471.4;487.5;496.9;500;496.9;487.5;471.4;447.9;415.74;372.68;314.27;229.06;0;0;0;0;0;0;0;0;0;0;0;0;0;0;0;0;0;0;0;0;0;0;0;0;0;0;0;0;0;0;0;0;0;0;0;0;0;0;0;53.333;293.33;533.33;773.33;1013.3;846.67;606.67;366.67;126.67;-113.33;53.333;0;0;0;0;0;0;0;229.06;314.27;372.68;415.74;447.9;471.4;487.5;496.9;500;496.9;487.5;471.4;447.9;415.74;372.68;314.27;229.06;0;0;0;0;0;0;0;0;0;0;0;0;0;0;0;0;0;0;0;0;0;0;0;0;0;0;0;0;0;0;0;0;0;0;0;0;0;0;0;35.556;275.56;515.56;755.56;995.56;864.44;624.44;384.44;144.44;-95.556;35.556;0;0;0;0;0;0;0;229.06;314.27;372.68;415.74;447.9;471.4;487.5;496.9;500;496.9;487.5;471.4;447.9;415.74;372.68;314.27;229.06;0;0;0;0;0;0;0;0;0;0;0;0;0;0;0;0;0;0;0;0;0;0;0;0;0;0;0;0;0;0;0;0;0;0;0;0;0;0;0;17.778;257.78;497.78;737.78;977.78;882.22;642.22;402.22;162.22;-77.778;17.778;0;0;0;0;0;0;0;229.06;314.27;372.68;415.74;447.9;471.4;487.5;496.9;500;496.9;487.5;471.4;447.9;415.74;372.68;314.27;229.06;0;0;0;0;0;0;0;0;0;0;0;0;0;0;0;0;0;0;0;0;0;0;0;0;0;0;0;0;0;0;0;0;0;0;0;0;0;0;0;2.3283e-08;240;480;720;960;900;660;420;180;-60;2.3283e-08;0;0;0;0;0;0;0;229.06;314.27;372.68;415.74;447.9;471.4;487.5;496.9;500;496.9;487.5;471.4;447.9;415.74;372.68;314.27;229.06;0;0;0;0;0;0;0;0;0;0;0;0;0;0;0;0;0;0;0;0;0;0;0;0;0;0;0;0;0;0;0;0;0;0;0;0;0;0;0;0;222.22;462.22;702.22;942.22;917.78;677.78;437.78;197.78;-42.222;-17.778;0;0;0;0;0;0;0;0;229.06;314.27;372.68;415.74;447.9;471.4;487.5;496.9;500;496.9;487.5;471.4;447.9;415.74;372.68;314.27;229.06;0;0;0;0;0;0;0;0;0;0;0;0;0;0;0;0;0;0;0;0;0;0;0;0;0;0;0;0;0;0;0;0;0;0;0;0;0;0;0;204.44;444.44;684.44;924.44;935.56;695.56;455.56;215.56;-24.444;-35.556;0;0;0;0;0;0;0;0;229.06;314.27;372.68;415.74;447.9;471.4;487.5;496.9;500;496.9;487.5;471.4;447.9;415.74;372.68;314.27;229.06;0;0;0;0;0;0;0;0;0;0;0;0;0;0;0;0;0;0;0;0;0;0;0;0;0;0;0;0;0;0;0;0;0;0;0;0;0;0;0;186.67;426.67;666.67;906.67;953.33;713.33;473.33;233.33;-6.6667;-53.333;0;0;0;0;0;0;0;0;229.06;314.27;372.68;415.74;447.9;471.4;487.5;496.9;500;496.9;487.5;471.4;447.9;415.74;372.68;314.27;229.06;0;0;0;0;0;0;0;0;0;0;0;0;0;0;0;0;0;0;0;0;0;0;0;0;0;0;0;0;0;0;0;0;0;0;0;0;0;0;0;168.89;408.89;648.89;888.89;971.11;731.11;491.11;251.11;11.111;-71.111;0;0;0;0;0;0;0;0;229.06;314.27;372.68;415.74;447.9;471.4;487.5;496.9;500;496.9;487.5;471.4;447.9;415.74;372.68;314.27;229.06;0;0;0;0;0;0;0;0;0;0;0;0;0;0;0;0;0;0;0;0;0;0;0;0;0;0;0;0;0;0;0;0;0;0;0;0;0;0;0;151.11;391.11;631.11;871.11;988.89;748.89;508.89;268.89;28.889;-88.889;0;0;0;0;0;0;0;0;229.06;314.27;372.68;415.74;447.9;471.4;487.5;496.9;500;496.9;487.5;471.4;447.9;415.74;372.68;314.27;229.06;0;0;0;0;0;0;0;0;0;0;0;0;0;0;0;0;0;0;0;0;0;0;0;0;0;0;0;0;0;0;0;0;0;0;0;0;0;0;0;133.33;373.33;613.33;853.33;1006.7;766.67;526.67;286.67;46.667;-106.67;0;0;0;0;0;0;0;0;229.06;314.27;372.68;415.74;447.9;471.4;487.5;496.9;500;496.9;487.5;471.4;447.9;415.74;372.68;314.27;229.06;0;0;0;0;0;0;0;0;0;0;0;0;0;0;0;0;0;0;0;0;0;0;0;0;0;0;0;0;0;0;0;0;0;0;0;0;0;0;0;115.56;355.56;595.56;835.56;1024.4;784.44;544.44;304.44;64.444;-124.44;0;0;0;0;0;0;0;0;229.06;314.27;372.68;415.74;447.9;471.4;487.5;496.9;500;496.9;487.5;471.4;447.9;415.74;372.68;314.27;229.06;0;0;0;0;0;0;0;0;0;0;0;0;0;0;0;0;0;0;0;0;0;0;0;0;0;0;0;0;0;0;0;0;0;0;0;0;0;0;0;97.778;337.78;577.78;817.78;1042.2;802.22;562.22;322.22;82.222;-142.22;0;0;0;0;0;0;0;0;229.06;314.27;372.68;415.74;447.9;471.4;487.5;496.9;500;496.9;487.5;471.4;447.9;415.74;372.68;314.27;229.06;0;0;0;0;0;0;0;0;0;0;0;0;0;0;0;0;0;0;0;0;0;0;0;0;0;0;0;0;0;0;0;0;0;0;0;0;0;0;0;80;320;560;800;1040;820;580;340;100;-140;80;0;0;0;0;0;0;0;229.06;314.27;372.68;415.74;447.9;471.4;487.5;496.9;500;496.9;487.5;471.4;447.9;415.74;372.68;314.27;229.06;0;0;0;0;0;0;0;0;0;0;0;0;0;0;0;0;0;0;0;0;0;0;0;0;0;0;0;0;0;0;0;0;0;0;0;0;0;0;0;62.222;302.22;542.22;782.22;1022.2;837.78;597.78;357.78;117.78;-122.22;62.222;0;0;0;0;0;0;0;229.06;314.27;372.68;415.74;447.9;471.4;487.5;496.9;500;496.9;487.5;471.4;447.9;415.74;372.68;314.27;229.06;0;0;0;0;0;0;0;0;0;0;0;0;0;0;0;0;0;0;0;0;0;0;0;0;0;0;0;0;0;0;0;0;0;0;0;0;0;0;0;44.444;284.44;524.44;764.44;1004.4;855.56;615.56;375.56;135.56;-104.44;44.444;0;0;0;0;0;0;0;229.06;314.27;372.68;415.74;447.9;471.4;487.5;496.9;500;496.9;487.5;471.4;447.9;415.74;372.68;314.27;229.06;0;0;0;0;0;0;0;0;0;0;0;0;0;0;0;0;0;0;0;0;0;0;0;0;0;0;0;0;0;0;0;0;0;0;0;0;0;0;0;26.667;266.67;506.67;746.67;986.67;873.33;633.33;393.33;153.33;-86.667;26.667;0;0;0;0;0;0;0;229.06;314.27;372.68;415.74;447.9;471.4;487.5;496.9;500;496.9;487.5;471.4;447.9;415.74;372.68;314.27;229.06;0;0;0;0;0;0;0;0;0;0;0;0;0;0;0;0;0;0;0;0;0;0;0;0;0;0;0;0;0;0;0;0;0;0;0;0;0;0;0;8.8889;248.89;488.89;728.89;968.89;891.11;651.11;411.11;171.11;-68.889;8.8889;0;0;0;0;0;0;0;229.06;314.27;372.68;415.74;447.9;471.4;487.5;496.9;500;496.9;487.5;471.4;447.9;415.74;372.68;314.27;229.06;0;0;0;0;0;0;0;0;0;0;0;0;0;0;0;0;0;0;0;0;0;0;0;0;0;0;0;0;0;0;0;0;0;0;0;0;0;0;0;0;231.11;471.11;711.11;951.11;908.89;668.89;428.89;188.89;-51.111;-8.8889;0;0;0;0;0;0;0;0;229.06;314.27;372.68;415.74;447.9;471.4;487.5;496.9;500;496.9;487.5;471.4;447.9;415.74;372.68;314.27;229.06;0;0;0;0;0;0;0;0;0;0;0;0;0;0;0;0;0;0;0;0;0;0;0;0;0;0;0;0;0;0;0;0;0;0;0;0;0;0;0;213.33;453.33;693.33;933.33;926.67;686.67;446.67;206.67;-33.333;-26.667;0;0;0;0;0;0;0;0;229.06;314.27;372.68;415.74;447.9;471.4;487.5;496.9;500;496.9;487.5;471.4;447.9;415.74;372.68;314.27;229.06;0;0;0;0;0;0;0;0;0;0;0;0;0;0;0;0;0;0;0;0;0;0;0;0;0;0;0;0;0;0;0;0;0;0;0;0;0;0;0;195.56;435.56;675.56;915.56;944.44;704.44;464.44;224.44;-15.556;-44.444;0;0;0;0;0;0;0;0;229.06;314.27;372.68;415.74;447.9;471.4;487.5;496.9;500;496.9;487.5;471.4;447.9;415.74;372.68;314.27;229.06;0;0;0;0;0;0;0;0;0;0;0;0;0;0;0;0;0;0;0;0;0;0;0;0;0;0;0;0;0;0;0;0;0;0;0;0;0;0;0;177.78;417.78;657.78;897.78;962.22;722.22;482.22;242.22;2.2222;-62.222;0;0;0;0;0;0;0;0;229.06;314.27;372.68;415.74;447.9;471.4;487.5;496.9;500;496.9;487.5;471.4;447.9;415.74;372.68;314.27;229.06;0;0;0;0;0;0;0;0;0;0;0;0;0;0;0;0;0;0;0;0;0;0;0;0;0;0;0;0;0;0;0;0;0;0;0;0;0;0;0;160;400;640;880;980;740;500;260;20;-80;0;0;0;0;0;0;0;0;229.06;314.27;372.68;415.74;447.9;471.4;487.5;496.9;500;496.9;487.5;471.4;447.9;415.74;372.68;314.27;229.06;0;0;0;0;0;0;0;0;0;0;0;0;0;0;0;0;0;0;0;0;0;0;0;0;0;0;0;0;0;0;0;0;0;0;0;0;0;0;0;142.22;382.22;622.22;862.22;997.78;757.78;517.78;277.78;37.778;-97.778;0;0;0;0;0;0;0;0;229.06;314.27;372.68;415.74;447.9;471.4;487.5;496.9;500;496.9;487.5;471.4;447.9;415.74;372.68;314.27;229.06;0;0;0;0;0;0;0;0;0;0;0;0;0;0;0;0;0;0;0;0;0;0;0;0;0;0;0;0;0;0;0;0;0;0;0;0;0;0;0;124.44;364.44;604.44;844.44;1015.6;775.56;535.56;295.56;55.556;-115.56;0;0;0;0;0;0;0;0;229.06;314.27;372.68;415.74;447.9;471.4;487.5;496.9;500;496.9;487.5;471.4;447.9;415.74;372.68;314.27;229.06;0;0;0;0;0;0;0;0;0;0;0;0;0;0;0;0;0;0;0;0;0;0;0;0;0;0;0;0;0;0;0;0;0;0;0;0;0;0;0;106.67;346.67;586.67;826.67;1033.3;793.33;553.33;313.33;73.333;-133.33;0;0;0;0;0;0;0;0;229.06;314.27;372.68;415.74;447.9;471.4;487.5;496.9;500;496.9;487.5;471.4;447.9;415.74;372.68;314.27;229.06;0;0;0;0;0;0;0;0;0;0;0;0;0;0;0;0;0;0;0;0;0;0;0;0;0;0;0;0;0;0;0;0;0;0;0;0;0;0;0;88.889;328.89;568.89;808.89;1048.9;811.11;571.11;331.11;91.111;-148.89;88.889;0;0;0;0;0;0;0;229.06;314.27;372.68;415.74;447.9;471.4;487.5;496.9;500;496.9;487.5;471.4;447.9;415.74;372.68;314.27;229.06;0;0;0;0;0;0;0;0;0;0;0;0;0;0;0;0;0;0;0;0;0;0;0;0;0;0;0;0;0;0;0;0;0;0;0;0;0;0;0;71.111;311.11;551.11;791.11;1031.1;828.89;588.89;348.89;108.89;-131.11;71.111;0;0;0;0;0;0;0;229.06;314.27;372.68;415.74;447.9;471.4;487.5;496.9;500;496.9;487.5;471.4;447.9;415.74;372.68;314.27;229.06;0;0;0;0;0;0;0;0;0;0;0;0;0;0;0;0;0;0;0;0;0;0;0;0;0;0;0;0;0;0;0;0;0;0;0;0;0;0;0;53.333;293.33;533.33;773.33;1013.3;846.67;606.67;366.67;126.67;-113.33;53.333;0;0;0;0;0;0;0;229.06;314.27;372.68;415.74;447.9;471.4;487.5;496.9;500;496.9;487.5;471.4;447.9;415.74;372.68;314.27;229.06;0;0;0;0;0;0;0;0;0;0;0;0;0;0;0;0;0;0;0;0;0;0;0;0;0;0;0;0;0;0;0;0;0;0;0;0;0;0;0;35.556;275.56;515.56;755.56;995.56;864.44;624.44;384.44;144.44;-95.556;35.556;0;0;0;0;0;0;0;229.06;314.27;372.68;415.74;447.9;471.4;487.5;496.9;500;496.9;487.5;471.4;447.9;415.74;372.68;314.27;229.06;0;0;0;0;0;0;0;0;0;0;0;0;0;0;0;0;0;0;0;0;0;0;0;0;0;0;0;0;0;0;0;0;0;0;0;0;0;0;0;17.778;257.78;497.78;737.78;977.78;882.22;642.22;402.22;162.22;-77.778;17.778;0;0;0;0;0;0;0;229.06;314.27;372.68;415.74;447.9;471.4;487.5;496.9;500;496.9;487.5;471.4;447.9;415.74;372.68;314.27;229.06;0

Posible flutter auricular. Repetir la prueba alargando la toma de la medida