200
0;0;0;0;0;0;0;0;0;0;0;0;0;0;0;0;0;0;0;0;0;0;0;0;0;0;0;0;0;0;0;0;0;0;0;0;0;0;0;0;0;0;0;0;0;0;0;0;0;0;0;0;0;0;0;0;0;0;0;0;0;0;0;0;0;0;0;0;0;0;0;0;0;0;0;0;0;0;0;0;0;0;0;0;0;0;0;0;0;0;0;0;0;0;0;0;0;33.333;133.33;233.33;333.33;433.33;533.33;633.33;733.33;833.33;816.67;716.67;616.67;516.67;416.67;316.67;216.67;116.67;16.667;-83.333;-66.667;0;0;0;0;0;0;0;0;0;0;0;0;0;0;0;164.34;229.06;276.39;314.27;345.83;372.68;395.77;415.74;433.01;447.9;460.64;471.4;480.32;487.5;493.01;496.9;499.23;500;499.23;496.9;493.01;487.5;480.32;471.4;460.64;447.9;433.01;415.74;395.77;372.68;345.83;314.27;276.39;229.06;164.34;0;0;0;0;0;0;0;0;0;0;0;0;0;0;0;0;0;0;0;0;0;0;0;0;0;0;0;0;0;0;0;0;0;0;0;0;0;0;0;0;0;0;0;0;0;0;0;0;0;0;0;0;0;0;0;0;0;0;0;0;0;0;0;0;0;0;0;0;0;0;0;0;0;0;0;0;0;0;0;0;0;0;0;0;0;0;0;0;0;0;0;0;0;0;0;0;0;66.667;166.67;266.67;366.67;466.67;566.67;666.67;766.67;866.67;783.33;683.33;583.33;483.33;383.33;283.33;183.33;83.333;-16.667;-116.67;-33.333;0;0;0;0;0;0;0;0;0;0;0;0;0;0;0;164.34;229.06;276.39;314.27;345.83;372.68;395.77;415.74;433.01;447.9;460.64;471.4;480.32;487.5;493.01;496.9;499.23;500;499.23;496.9;493.01;487.5;480.32;471.4;460.64;447.9;433.01;415.74;395.77;372.68;345.83;314.27;276.39;229.06;164.34;0;0;0;0;0;0;0;0;0;0;0;0;0;0;0;0;0;0;0;0;0;0;0;0;0;0;0;0;0;0;0;0;0;0;0;0;0;0;0;0;0;0;0;0;0;0;0;0;0;0;0;0;0;0;0;0;0;0;0;0;0;0;0;0;0;0;0;0;0;0;0;0;0;0;0;0;0;0;0;0;0;0;0;0;0;0;0;0;0;0;0;0;0;0;0;0;7.276e-12;100;200;300;400;500;600;700;800;850;750;650;550;450;350;250;150;50;-50;-100;0;0;0;0;0;0;0;0;0;0;0;0;0;0;0;164.34;229.06;276.39;314.27;345.83;372.68;395.77;415.74;433.01;447.9;460.64;471.4;480.32;487.5;493.01;496.9;499.23;500;499.23;496.9;493.01;487.5;480.32;471.4;460.64;447.9;433.01;415.74;395.77;372.68;345.83;314.27;276.39;229.06;164.34;0;0;0;0;0;0;0;0;0;0;0;0;0;0;0;0;0;0;0;0;0;0;0;0;0;0;0;0;0;0;0;0;0;0;0;0;0;0;0;0;0;0;0;0;0;0;0;0;0;0;0;0;0;0;0;0;0;0;0;0;0;0;0;0;0;0;0;0;0;0;0;0;0;0;0;0;0;0;0;0;0;0;0;0;0;0;0;0;0;0;0;0;0;0;0;0;0;33.333;133.33;233.33;333.33;433.33;533.33;633.33;733.33;833.33;816.67;716.67;616.67;516.67;416.67;316.67;216.67;116.67;16.667;-83.333;-66.667;0;0;0;0;0;0;0;0;0;0;0;0;0;0;0;164.34;229.06;276.39;314.27;345.83;372.68;395.77;415.74;433.01;447.9;460.64;471.4;480.32;487.5;493.01;496.9;499.23;500;499.23;496.9;493.01;487.5;480.32;471.4;460.64;447.9;433.01;415.74;395.77;372.68;345.83;314.27;276.39;229.06;164.34;0;0;0;0;0;0;0;0;0;0;0;0;0;0;0;0;0;0;0;0;0;0;0;0;0;0;0;0;0;0;0;0;0;0;0;0;0;0;0;0;0;0;0;0;0;0;0;0;0;0;0;0;0;0;0;0;0;0;0;0;0;0;0;0;0;0;0;0;0;0;0;0;0;0;0;0;0;0;0;0;0;0;0;0;0;0;0;0;0;0;0;0;0;0;0;0;0;66.667;166.67;266.67;366.67;466.67;566.67;666.67;766.67;866.67;783.33;683.33;583.33;483.33;383.33;283.33;183.33;83.333;-16.667;-116.67;-33.333;0;0;0;0;0;0;0;0;0;0;0;0;0;0;0;164.34;229.06;276.39;314.27;345.83;372.68;395.77;415.74;433.01;447.9;460.64;471.4;480.32;487.5;493.01;496.9;499.23;500;499.23;496.9;493.01;487.5;480.32;471.4;460.64;447.9;433.01;415.74;395.77;372.68;345.83;314.27;276.39;229.06;164.34;0;0;0;0;0;0;0;0;0;0;0;0;0;0;0;0;0;0;0;0;0;0;0;0;0;0;0;0;0;0;0;0;0;0;0;0;0;0;0;0;0;0;0;0;0;0;0;0;0;0;0;0;0;0;0;0;0;0;0;0;0;0;0;0;0;0;0;0;0;0;0;0;0;0;0;0;0;0;0;0;0;0;0;0;0;0;0;0;0;0;0;0;0;0;0;0;4.3656e-11;100;200;300;400;500;600;700;800;850;750;650;550;450;350;250;150;50;-50;-100;0;0;0;0;0;0;0;0;0;0;0;0;0;0;0;164.34;229.06;276.39;314.27;345.83;372.68;395.77;415.74;433.01;447.9;460.64;471.4;480.32;487.5;493.01;496.9;499.23;500;499.23;496.9;493.01;487.5;480.32;471.4;460.64;447.9;433.01;415.74;395.77;372.68;345.83;314.27;276.39;229.06;164.34;0;0;0;0;0;0;0;0;0;0;0;0;0;0;0;0;0;0;0;0;0;0;0;0;0;0;0;0;0;0;0;0;0;0;0;0;0;0;0;0;0;0;0;0;0;0;0;0;0;0;0;0;0;0;0;0;0;0;0;0;0;0;0;0;0;0;0;0;0;0;0;0;0;0;0;0;0;0;0;0;0;0;0;0;0;0;0;0;0;0;0;0;0;0;0;0;0;33.333;133.33;233.33;333.33;433.33;533.33;633.33;733.33;833.33;816.67;716.67;616.67;516.67;416.67;316.67;216.67;116.67;16.667;-83.333;-66.667;0;0;0;0;0;0;0;0;0;0;0;0;0;0;0;164.34;229.06;276.39;314.27;345.83;372.68;395.77;415.74;433.01;447.9;460.64;471.4;480.32;487.5;493.01;496.9;499.23;500;499.23;496.9;493.01;487.5;480.32;471.4;460.64;447.9;433.01;415.74;395.77;372.68;345.83;314.27;276.39;229.06;164.34;0;0;0;0;0;0;0;0;0;0;0;0;0;0;0;0;0;0;0;0;0;0;0;0;0;0;0;0;0;0;0;0;0;0;0;0;0;0;0;0;0;0;0;0;0;0;0;0;0;0;0;0;0;0;0;0;0;0;0;0;0;0;0;0;0;0;0;0;0;0;0;0;0;0;0;0;0;0;0;0;0;0;0;0;0;0;0;0;0;0;0;0;0;0;0;0;0;66.667;166.67;266.67;366.67;466.67;566.67;666.67;766.67;866.67;783.33;683.33;583.33;483.33;383.33;283.33;183.33;83.333;-16.667;-116.67;-33.333;0;0;0;0;0;0;0;0;0;0;0;0;0;0;0;164.34;229.06;276.39;314.27;345.83;372.68;395.77;415.74;433.01;447.9;460.64;471.4;480.32;487.5;493.01;496.9;499.23;500;499.23;496.9;493.01;487.5;480.32;471.4;460.64;447.9;433.01;415.74;395.77;372.68;345.83;314.27;276.39;229.06;164.34;0;0;0;0;0;0;0;0;0;0;0;0;0;0;0;0;0;0;0;0;0;0;0;0;0;0;0;0;0;0;0;0;0;0;0;0;0;0;0;0;0;0;0;0;0;0;0;0;0;0;0;0;0;0;0;0;0;0;0;0;0;0;0;0;0;0;0;0;0;0;0;0;0;0;0;0;0;0;0;0;0;0;0;0;0;0;0;0;0;0;0;0;0;0;0;0;5.8208e-11;100;200;300;400;500;600;700;800;850;750;650;550;450;350;250;150;50;-50;-100;0;0;0;0;0;0;0;0;0;0;0;0;0;0;0;164.34;229.06;276.39;314.27;345.83;372.68;395.77;415.74;433.01;447.9;460.64;471.4;480.32;487.5;493.01;496.9;499.23;500;499.23;496.9;493.01;487.5;480.32;471.4;460.64;447.9;433.01;415.74;395.77;372.68;345.83;314.27;276.39;229.06;164.34;0;0;0;0;0;0;0;0;0;0;0;0;0;0;0;0;0;0;0;0;0;0;0;0;0;0;0;0;0;0;0;0;0;0;0;0;0;0;0;0;0;0;0;0;0;0;0;0;0;0;0;0;0;0;0;0;0;0;0;0;0;0;0;0;0;0;0;0;0;0;0;0;0;0;0;0;0;0;0;0;0;0;0;0;0;0;0;0;0;0;0;0;0;0;0;0;0;33.333;133.33;233.33;333.33;433.33;533.33;633.33;733.33;833.33;816.67;716.67;616.67;516.67;416.67;316.67;216.67;116.67;16.667;-83.333;-66.667;0;0;0;0;0;0;0;0;0;0;0;0;0;0;0;164.34;229.06;276.39;314.27;345.83;372.68;395.77;415.74;433.01;447.9;460.64;471.4;480.32;487.5;493.01;496.9;499.23;500;499.23;496.9;493.01;487.5;480.32;471.4;460.64;447.9;433.01;415.74;395.77;372.68;345.83;314.27;276.39;229.06;164.34;0;0;0;0;0;0;0;0;0;0;0;0;0;0;0;0;0;0;0;0;0;0;0;0;0;0;0;0;0;0;0;0;0;0;0;0;0;0;0;0;0;0;0;0;0;0;0;0;0;0;0;0;0;0;0;0;0;0;0;0;0;0;0;0;0;0;0;0;0;0;0;0;0;0;0;0;0;0;0;0;0;0;0;0;0;0;0;0;0;0;0;0;0;0;0;0;0;66.667;166.67;266.67;366.67;466.67;566.67;666.67;766.67;866.67;783.33;683.33;583.33;483.33;383.33;283.33;183.33;83.333;-16.667;-116.67;-33.333;0;0;0;0;0;0;0;0;0;0;0;0;0;0;0;164.34;229.06;276.39;314.27;345.83;372.68;395.77;415.74;433.01;447.9;460.64;471.4;480.32;487.5;493.01;496.9;499.23;500;499.23;496.9;493.01;487.5;480.32;471.4;460.64;447.9;433.01;415.74;395.77;372.68;345.83;314.27;276.39;229.06;164.34;0;0;0;0;0;0;0;0;0;0;0;0;0;0;0;0;0;0;0;0;0;0;0;0;0;0;0;0;0;0;0;0;0;0;0;0;0;0;0;0;0;0;0;0;0;0;0;0;0;0;0;0;0;0;0;0;0;0;0;0;0;0;0;0;0;0;0;0;0;0;0;0;0;0;0;0;0;0;0;0;0;0;0;0;0;0;0;0;0;0;0;0;0;0;0;0;1.1642e-10;100;200;300;400;500;600;700;800;850;750;650;550;450;350;250;150;50;-50;-100;0;0;0;0;0;0;0;0;0;0;0;0;0;0;0;164.34;229.06;276.39;314.27;345.83;372.68;395.77;415.74;433.01;447.9;460.64;471.4;480.32;487.5;493.01;496.9;499.23;500;499.23;496.9;493.01;487.5;480.32;471.4;460.64;447.9;433.01;415.74;395.77;372.68;345.83;314.27;276.39;229.06;164.34;0;0;0;0;0;0;0;0;0;0;0;0;0;0;0;0;0;0;0;0;0;0;0;0;0;0;0;0;0;0;0;0;0;0;0;0;0;0;0;0;0;0;0;0;0;0;0;0;0;0;0;0;0;0;0;0;0;0;0;0;0;0;0;0;0;0;0;0;0;0;0;0;0;0;0;0;0;0;0;0;0;0;0;0;0;0;0;0;0;0;0;0;0;0;0;0;0;33.333;133.33;233.33;333.33;433.33;533.33;633.33;733.33;833.33;816.67;716.67;616.67;516.67;416.67;316.67;216.67;116.67;16.667;-83.333;-66.667;0;0;0;0;0;0;0;0;0;0;0;0;0;0;0;164.34;229.06;276.39;314.27;345.83;372.68;395.77;415.74;433.01;447.9;460.64;471.4;480.32;487.5;493.01;496.9;499.23;500;499.23;496.9;493.01;487.5;480.32;471.4;460.64;447.9;433.01;415.74;395.77;372.68;345.83;314.27;276.39;229.06;164.34;0;0;0;0;0;0;0;0;0;0;0;0;0;0;0;0;0;0;0;0;0;0;0;0;0;0;0;0;0;0;0;0;0;0;0;0;0;0;0;0;0;0;0;0;0;0;0;0;0;0;0;0;0;0;0;0;0;0;0;0;0;0;0;0;0;0;0;0;0;0;0;0;0;0;0;0;0;0;0;0;0;0;0;0;0;0;0;0;0;0;0;0;0;0;0;0;0;66.667;166.67;266.67;366.67;466.67;566.67;666.67;766.67;866.67;783.33;683.33;583.33;483.33;383.33;283.33;183.33;83.333;-16.667;-116.67;-33.333;0;0;0;0;0;0;0;0;0;0;0;0;0;0;0;164.34;229.06;276.39;314.27;345.83;372.68;395.77;415.74;433.01;447.9;460.64;471.4;480.32;487.5;493.01;496.9;499.23;500;499.23;496.9;493.01;487.5;480.32;471.4;460.64;447.9;433.01;415.74;395.77;372.68;345.83;314.27;276.39;229.06;164.34;0;0;0;0;0;0;0;0;0;0;0;0;0;0;0;0;0;0;0;0;0;0;0;0;0;0;0;0;0;0;0;0;0;0;0;0;0;0;0;0;0;0;0;0;0;0;0;0;0;0;0;0;0;0;0;0;0;0;0;0;0;0;0;0;0;0;0;0;0;0;0;0;0;0;0;0;0;0;0;0;0;0;0;0;0;0;0;0;0;0;0;0;0;0;0;0;1.7462e-10;100;200;300;400;500;600;700;800;850;750;650;550;450;350;250;150;50;-50;-100;0;0;0;0;0;0;0;0;0;0;0;0;0;0;0;164.34;229.06;276.39;314.27;345.83;372.68;395.77;415.74;433.01;447.9;460.64;471.4;480.32;487.5;493.01;496.9;499.23;500;499.23;496.9;493.01;487.5;480.32;471.4;460.64;447.9;433.01;415.74;395.77;372.68;345.83;314.27;276.39;229.06;164.34;0;0;0;0;0;0;0;0;0;0;0;0;0;0;0;0;0;0;0;0;0;0;0;0;0;0;0;0;0;0;0;0;0;0;0;0;0;0;0;0;0;0;0;0;0;0;0;0;0;0;0;0;0;0;0;0;0;0;0;0;0;0;0;0;0;0;0;0;0;0;0;0;0;0;0;0;0;0;0;0;0;0;0;0;0;0;0;0;0;0;0;0;0;0;0;0;0;33.333;133.33;233.33;333.33;433.33;533.33;633.33;733.33;833.33;816.67;716.67;616.67;516.67;416.67;316.67;216.67;116.67;16.667;-83.333;-66.667;0;0;0;0;0;0;0;0;0;0;0;0;0;0;0;164.34;229.06;276.39;314.27;345.83;372.68;395.77;415.74;433.01;447.9;460.64;471.4;480.32;487.5;493.01;496.9;499.23;500;499.23;496.9;493.01;487.5;480.32;471.4;460.64;447.9;433.01;415.74;395.77;372.68;345.83;314.27;276.39;229.06;164.34;0;0;0;0;0;0;0;0;0;0;0;0;0;0;0;0;0;0;0;0;0;0;0;0;0;0;0;0;0;0;0;0;0;0;0;0;0;0;0;0;0;0;0;0;0;0;0;0;0;0;0;0;0;0;0;0;0;0;0;0;0;0;0;0;0;0;0;0;0;0;0;0;0;0;0;0;0;0;0;0;0;0;0;0;0;0;0;0;0;0;0;0;0;0;0;0;0;66.667;166.67;266.67;366.67;466.67;566.67;666.67;766.67;866.67;783.33;683.33;583.33;483.33;383.33;283.33;183.33;83.333;-16.667;-116.67;-33.333;0;0;0;0;0;0;0;0;0;0;0;0;0;0;0;164.34;229.06;276.39;314.27;345.83;372.68;395.77;415.74;433.01;447.9;460.64;471.4;480.32;487.5;493.01;496.9;499.23;500;499.23;496.9;493.01;487.5;480.32;471.4;460.64;447.9;433.01;415.74;395.77;372.68;345.83;314.27;276.39;229.06;164.34;0;0;0;0;0;0;0;0;0;0;0;0;0;0;0;0;0;0;0;0;0;0;0;0;0;0;0;0;0;0;0;0;0;0;0;0;0;0;0;0;0;0;0;0;0;0;0;0;0;0;0;0;0;0;0;0;0;0;0;0;0;0;0;0;0;0;0;0;0;0;0;0;0;0;0;0;0;0;0;0;0;0;0;0;0;0;0;0;0;0;0;0;0;0;0;0;2.9104e-10;100;200;300;400;500;600;700;800;850;750;650;550;450;350;250;150;50;-50;-100;0;0;0;0;0;0;0;0;0;0;0;0;0;0;0;164.34;229.06;276.39;314.27;345.83;372.68;395.77;415.74;433.01;447.9;460.64;471.4;480.32;487.5;493.01;496.9;499.23;500;499.23;496.9;493.01;487.5;480.32;471.4;460.64;447.9;433.01;415.74;395.77;372.68;345.83;314.27;276.39;229.06;164.34;0;0;0;0;0;0;0;0;0;0;0;0;0;0;0;0;0;0;0;0;0;0;0;0;0;0;0;0;0;0;0;0;0;0;0;0;0;0;0;0;0;0;0;0;0;0;0;0;0;0;0;0;0;0;0;0;0;0;0;0;0;0;0;0;0;0;0;0;0;0;0;0;0;0;0;0;0;0;0;0;0;0;0;0;0;0;0;0;0;0;0;0;0;0;0;0;0;33.333;133.33;233.33;333.33;433.33;533.33;633.33;733.33;833.33;816.67;716.67;616.67;516.67;416.67;316.67;216.67;116.67;16.667;-83.333;-66.667;0;0;0;0;0;0;0;0;0;0;0;0;0;0;0;164.34;229.06;276.39;314.27;345.83;372.68;395.77;415.74;433.01;447.9;460.64;471.4;480.32;487.5;493.01;496.9;499.23;500;499.23;496.9;493.01;487.5;480.32;471.4;460.64;447.9;433.01;415.74;395.77;372.68;345.83;314.27;276.39;229.06;164.34;0;0;0;0;0;0;0;0;0;0;0;0;0;0;0;0;0;0;0;0;0;0;0;0;0;0;0;0;0;0;0;0;0;0;0;0;0;0;0;0;0;0;0;0;0;0;0;0;0;0;0;0;0;0;0;0;0;0;0;0;0;0;0;0;0;0;0;0;0;0;0;0;0;0;0;0;0;0;0;0;0;0;0;0;0;0;0;0;0;0;0;0;0;0;0;0;0;66.667;166.67;266.67;366.67;466.67;566.67;666.67;766.67;866.67;783.33;683.33;583.33;483.33;383.33;283.33;183.33;83.333;-16.667;-116.67;-33.333;0;0;0;0;0;0;0;0;0;0;0;0;0;0;0;164.34;229.06;276.39;314.27;345.83;372.68;395.77;415.74;433.01;447.9;460.64;471.4;480.32;487.5;493.01;496.9;499.23;500;499.23;496.9;493.01;487.5;480.32;471.4;460.64;447.9;433.01;415.74;395.77;372.68;345.83;314.27;276.39;229.06;164.34;0;0;0;0;0;0;0;0;0;0;0;0;0;0;0;0;0;0;0;0;0;0;0;0;0;0;0;0;0;0;0;0;0;0;0;0;0;0;0;0;0;0;0;0;0;0;0;0;0;0;0;0;0;0;0;0;0;0;0;0;0;0;0;0;0;0;0;0;0;0;0;0;0;0;0;0;0;0;0;0;0;0;0;0;0;0;0;0;0;0;0;0;0;0;0;0;2.3283e-10;100;200;300;400;500;600;700;800;850;750;650;550;450;350;250;150;50;-50;-100;0;0;0;0;0;0;0;0;0;0;0;0;0;0;0;164.34;229.06;276.39;314.27;345.83;372.68;395.77;415.74;433.01;447.9;460.64;471.4;480.32;487.5;493.01;496.9;499.23;500;499.23;496.9;493.01;487.5;480.32;471.4;460.64;447.9;433.01;415.74;395.77;372.68;345.83;314.27;276.39;229.06;164.34;0;0;0;0;0;0;0;0;0;0;0;0;0;0;0;0;0;0;0;0;0;0;0;0;0;0;0;0;0;0;0;0;0;0;0;0;0;0;0;0;0;0;0;0;0;0;0;0;0;0;0;0;0;0;0;0;0;0;0;0;0;0;0;0;0;0;0;0;0;0;0;0;0;0;0;0;0;0;0;0;0;0;0;0;0;0;0;0;0;0;0;0;0;0;0;0;0;33.333;133.33;233.33;333.33;433.33;533.33;633.33;733.33;833.33;816.67;716.67;616.67;516.67;416.67;316.67;216.67;116.67;16.667;-83.333;-66.667;0;0;0;0;0;0;0;0;0;0;0;0;0;0;0;164.34;229.06;276.39;314.27;345.83;372.68;395.77;415.74;433.01;447.9;460.64;471.4;480.32;487.5;493.01;496.9;499.23;500;499.23;496.9;493.01;487.5;480.32;471.4;460.64;447.9;433.01;415.74;395.77;372.68;345.83;314.27;276.39;229.06;164.34;0;0;0;0;0;0;0;0;0;0;0;0;0;0;0;0;0;0;0;0;0;0;0;0;0;0;0;0;0;0;0;0;0;0;0;0;0;0;0;0;0;0;0;0;0;0;0;0;0;0;0;0;0;0;0;0;0;0;0;0;0;0;0;0;0;0;0;0;0;0;0;0;0;0;0;0;0;0;0;0;0;0;0;0;0;0;0;0;0;0;0;0;0;0;0;0;0;66.667;166.67;266.67;366.67;466.67;566.67;666.67;766.67;866.67;783.33;683.33;583.33;483.33;383.33;283.33;183.33;83.333;-16.667;-116.67;-33.333;0;0;0;0;0;0;0;0;0;0;0;0;0;0;0;164.34;229.06;276.39;314.27;345.83;372.68;395.77;415.74;433.01;447.9;460.64;471.4;480.32;487.5;493.01;496.9;499.23;500;499.23;496.9;493.01;487.5;480.32;471.4;460.64;447.9;433.01;415.74;395.77;372.68;345.83;314.27;276.39;229.06;164.34;0;0;0;0;0;0;0;0;0;0;0;0;0;0;0;0;0;0;0;0;0;0;0;0;0;0;0;0;0;0;0;0;0;0;0;0;0;0;0;0;0;0;0;0;0;0;0;0;0;0;0;0;0;0;0;0;0;0;0;0;0;0;0;0;0;0;0;0;0;0;0;0;0;0;0;0;0;0;0;0;0;0;0;0;0;0;0;0;0;0;0;0;0;0;0;0;5.8208e-11;100;200;300;400;500;600;700;800;850;750;650;550;450;350;250;150;50;-50;-100;0;0;0;0;0;0;0;0;0;0;0;0;0;0;0;164.34;229.06;276.39;314.27;345.83;372.68;395.77;415.74;433.01;447.9;460.64;471.4;480.32;487.5;493.01;496.9;499.23;500;499.23;496.9;493.01;487.5;480.32;471.4;460.64;447.9;433.01;415.74;395.77;372.68;345.83;314.27;276.39;229.06;164.34;0;0;0;0;0;0;0;0;0;0;0;0;0;0;0;0;0;0;0;0;0;0;0;0;0;0;0;0;0;0;0;0;0;0;0;0;0;0;0;0;0;0;0;0;0;0;0;0;0;0;0;0;0;0;0;0;0;0;0;0;0;0;0;0;0;0;0;0;0;0;0;0;0;0;0;0;0;0;0;0;0;0;0;0;0;0;0;0;0;0;0;0;0;0;0;0;0;33.333;133.33;233.33;333.33;433.33;533.33;633.33;733.33;833.33;816.67;716.67;616.67;516.67;416.67;316.67;216.67;116.67;16.667;-83.333;-66.667;0;0;0;0;0;0;0;0;0;0;0;0;0;0;0;164.34;229.06;276.39;314.27;345.83;372.68;395.77;415.74;433.01;447.9;460.64;471.4;480.32;487.5;493.01;496.9;499.23;500;499.23;496.9;493.01;487.5;480.32;471.4;460.64;447.9;433.01;415.74;395.77;372.68;345.83;314.27;276.39;229.06;164.34;0;0;0;0;0;0;0;0;0;0;0;0;0;0;0;0;0;0;0;0;0;0;0;0;0;0;0;0;0;0;0;0;0;0;0;0;0;0;0;0;0;0;0;0;0;0;0;0;0;0;0;0;0;0;0;0;0;0;0;0;0;0;0;0;0;0;0;0;0;0;0;0;0;0;0;0;0;0;0;0;0;0;0;0;0;0;0;0;0;0;0;0;0;0;0;0;0;66.667;166.67;266.67;366.67;466.67;566.67;666.67;766.67;866.67;783.33;683.33;583.33;483.33;383.33;283.33;183.33;83.333;-16.667;-116.67;-33.333;0;0;0;0;0;0;0;0;0;0;0;0;0;0;0;164.34;229.06;276.39;314.27;345.83;372.68;395.77;415.74;433.01;447.9;460.64;471.4;480.32;487.5;493.01;496.9;499.23;500;499.23;496.9;493.01;487.5;480.32;471.4;460.64;447.9;433.01;415.74;395.77;372.68;345.83;314.27;276.39;229.06;164.34;0;0;0;0;0;0;0;0;0;0;0;0;0;0;0;0;0;0;0;0;0;0;0;0;0;0;0;0;0;0;0;0;0;0;0;0;0;0;0;0;0;0;0;0;0;0;0;0;0;0;0;0;0;0;0;0;0;0;0;0;0;0;0;0;0;0;0;0;0;0;0;0;0;0;0;0;0;0;0;0;0;0;0;0;0;0;0;0;0;0;0;0;0;0;0;0;-5.8208e-11;100;200;300;400;500;600;700;800;850;750;650;550;450;350;250;150;50;-50;-100;-5.8208e-11;0;0;0;0;0;0;0;0;0;0;0;0;0;0;0;164.34;229.06;276.39;314.27;345.83;372.68;395.77;415.74;433.01;447.9;460.64;471.4;480.32;487.5;493.01;496.9;499.23;500;499.23;496.9;493.01;487.5;480.32;471.4;460.64;447.9;433.01;415.74;395.77;372.68;345.83;314.27;276.39;229.06;164.34;0;0;0;0;0;0;0;0;0;0;0;0;0;0;0;0;0;0;0;0;0;0;0;0;0;0;0;0;0;0;0;0;0;0;0;0;0;0;0;0;0;0;0;0;0;0;0;0;0;0;0;0;0;0;0;0;0;0;0;0;0;0;0;0;0;0;0;0;0;0;0;0;0;0;0;0;0;0;0;0;0;0;0;0;0;0;0;0;0;0;0;0;0;0;0;0;33.333;133.33;233.33;333.33;433.33;533.33;633.33;733.33;833.33;816.67;716.67;616.67;516.67;416.67;316.67;216.67;116.67;16.667;-83.333;-66.667;0;0;0;0;0;0;0;0;0;0;0;0;0;0;0;164.34;229.06;276.39;314.27;345.83;372.68;395.77;415.74;433.01;447.9;460.64;471.4;480.32;487.5;493.01;496.9;499.23;500;499.23;496.9;493.01;487.5;480.32;471.4;460.64;447.9;433.01;415.74;395.77;372.68;345.83;314.27;276.39;229.06;164.34;0;0;0;0;0;0;0;0;0;0;0;0;0;0;0;0;0;0;0;0;0;0;0;0;0;0;0;0;0;0;0;0;0;0;0;0;0;0;0;0;0;0;0;0;0;0;0;0;0;0;0;0;0;0;0;0;0;0;0;0;0;0;0;0;0;0;0;0;0;0;0;0;0;0;0;0;0;0;0;0;0;0;0;0;0;0;0;0;0;0;0;0;0;0;0;0;0;66.667;166.67;266.67;366.67;466.67;566.67;666.67;766.67;866.67;783.33;683.33;583.33;483.33;383.33;283.33;183.33;83.333;-16.667;-116.67;-33.333;0;0;0;0;0;0;0;0;0;0;0;0;0;0;0;164.34;229.06;276.39;314.27;345.83;372.68;395.77;415.74;433.01;447.9;460.64;471.4;480.32;487.5;493.01;496.9;499.23;500;499.23;496.9;493.01;487.5;480.32;471.4;460.64;447.9;433.01;415.74;395.77;372.68;345.83;314.27;276.39;229.06;164.34;0;0;0;0;0;0;0;0;0;0;0;0;0;0;0;0;0;0;0;0;0;0;0;0;0;0;0;0;0;0;0;0;0;0;0;0;0;0;0;0;0;0;0;0;0;0;0;0;0;0;0;0;0;0;0;0;0;0;0;0;0;0;0;0;0;0;0;0;0;0;0;0;0;0;0;0;0;0;0;0;0;0;0;0;0;0;0;0;0;0;0;0;0;0;0;0;0;100;200;300;400;500;600;700;800;850;750;650;550;450;350;250;150;50;-50;-100;-2.3283e-10;0;0;0;0;0;0;0;0;0;0;0;0;0;0;0;164.34;229.06;276.39;314.27;345.83;372.68;395.77;415.74;433.01;447.9;460.64;471.4;480.32;487.5;493.01;496.9;499.23;500;499.23;496.9;493.01;487.5;480.32;471.4;460.64;447.9;433.01;415.74;395.77;372.68;345.83;314.27;276.39;229.06;164.34;0;0;0;0;0;0;0;0;0;0;0;0;0;0;0;0;0;0;0;0;0;0;0;0;0;0;0;0;0;0;0;0;0;0;0;0;0;0;0;0;0;0;0;0;0;0;0;0;0;0;0;0;0;0;0;0;0;0;0;0;0;0;0;0;0;0;0;0;0;0;0;0;0;0;0;0;0;0;0;0;0;0;0;0;0;0;0;0;0;0;0;0;0;0;0;0;33.333;133.33;233.33;333.33;433.33;533.33;633.33;733.33;833.33;816.67;716.67;616.67;516.67;416.67;316.67;216.67;116.67;16.667;-83.333;-66.667;0;0;0;0;0;0;0;0;0;0;0;0;0;0;0;164.34;229.06;276.39;314.27;345.83;372.68;395.77;415.74;433.01;447.9;460.64;471.4;480.32;487.5;493.01;496.9;499.23;500;499.23;496.9;493.01;487.5;480.32;471.4;460.64;447.9;433.01;415.74;395.77;372.68;345.83;314.27;276.39;229.06;164.34;0;0;0;0;0;0;0;0;0;0;0;0;0;0;0;0;0;0;0;0;0;0;0;0;0;0;0;0;0;0;0;0;0;0;0;0;0;0;0;0;0;0;0;0;0;0;0;0;0;0;0;0;0;0;0;0;0;0;0;0;0;0;0;0;0;0;0;0;0;0;0;0;0;0;0;0;0;0;0;0;0;0;0;0;0;0;0;0;0;0;0;0;0;0;0;0;0;66.667;166.67;266.67;366.67;466.67;566.67;666.67;766.67;866.67;783.33;683.33;583.33;483.33;383.33;283.33;183.33;83.333;-16.667;-116.67;-33.333;0;0;0;0;0;0;0;0;0;0;0;0;0;0;0;164.34;229.06;276.39;314.27;345.83;372.68;395.77;415.74;433.01;447.9;460.64;471.4;480.32;487.5;493.01;496.9;499.23;500;499.23;496.9;493.01;487.5;480.32;471.4;460.64;447.9;433.01;415.74;395.77;372.68;345.83;314.27;276.39;229.06;164.34;0;0;0;0;0;0;0;0;0;0;0;0;0;0;0;0;0;0;0;0;0;0;0;0;0;0;0;0;0;0;0;0;0;0;0;0;0;0;0;0;0;0;0;0;0;0;0;0;0;0;0;0;0;0;0;0;0;0;0;0;0;0;0;0;0;0;0;0;0;0;0;0;0;0;0;0;0;0;0;0;0;0;0;0;0;0;0;0;0;0;0;0;0;0;0;0;0;100;200;300;400;500;600;700;800;850;750;650;550;450;350;250;150;50;-50;-100;-3.4925e-10;0;0;0;0;0;0;0;0;0;0;0;0;0;0;0;164.34;229.06;276.39;314.27;345.83;372.68;395.77;415.74;433.01;447.9;460.64;471.4;480.32;487.5;493.01;496.9;499.23;500;499.23;496.9;493.01;487.5;480.32;471.4;460.64;447.9;433.01;415.74;395.77;372.68;345.83;314.27;276.39;229.06;164.34;0;0;0;0;0;0;0;0;0;0;0;0;0;0;0;0;0;0;0;0;0;0;0;0;0;0;0;0;0;0;0;0;0;0;0;0;0;0;0;0;0;0;0;0;0;0;0;0;0;0;0;0;0;0;0;0;0;0;0;0;0;0;0;0;0;0;0;0;0;0;0;0;0;0;0;0;0;0;0;0;0;0;0;0;0;0;0;0;0;0;0;0;0;0;0;0;33.333;133.33;233.33;333.33;433.33;533.33;633.33;733.33;833.33;816.67;716.67;616.67;516.67;416.67;316.67;216.67;116.67;16.667;-83.333;-66.667;0;0;0;0;0;0;0;0;0;0;0;0;0;0;0;164.34;229.06;276.39;314.27;345.83;372.68;395.77;415.74;433.01;447.9;460.64;471.4;480.32;487.5;493.01;496.9;499.23;500;499.23;496.9;493.01;487.5;480.32;471.4;460.64;447.9;433.01;415.74;395.77;372.68;345.83;314.27;276.39;229.06;164.34;0;0;0;0;0;0;0;0;0;0;0;0;0;0;0;0;0;0;0;0;0;0;0;0;0;0;0;0;0;0;0;0;0;0;0;0;0;0;0;0;0;0;0;0;0;0;0;0;0;0;0;0;0;0;0;0;0;0;0;0;0;0;0;0;0;0;0;0;0;0;0;0;0;0;0;0;0;0;0;0;0;0;0;0;0;0;0;0;0;0;0;0;0;0;0;0;0;66.667;166.67;266.67;366.67;466.67;566.67;666.67;766.67;866.67;783.33;683.33;583.33;483.33;383.33;283.33;183.33;83.333;-16.667;-116.67;-33.333;0;0;0;0;0;0;0;0;0;0;0;0;0;0;0;164.34;229.06;276.39;314.27;345.83;372.68;395.77;415.74;433.01;447.9;460.64;471.4;480.32;487.5;493.01;496.9;499.23;500;499.23;496.9;493.01;487.5;480.32;471.4;460.64;447.9;433.01;415.74;395.77;372.68;345.83;314.27;276.39;229.06;164.34;0;0;0;0;0;0;0;0;0;0;0;0;0;0;0;0;0;0;0;0;0;0;0;0;0;0;0;0;0;0;0;0;0;0;0;0;0;0;0;0;0;0;0;0;0;0;0;0;0;0;0;0;0;0;0;0;0;0;0;0;0;0;0;0;0;0;0;0;0;0;0;0;0;0;0;0;0;0;0;0;0;0;0;0;0;0;0;0;0;0;0;0;0;0;0;0;0;100;200;300;400;500;600;700;800;850;750;650;550;450;350;250;150;50;-50;-100;-4.6566e-10;0;0;0;0;0;0;0;0;0;0;0;0;0;0;0;164.34;229.06;276.39;314.27;345.83;372.68;395.77;415.74;433.01;447.9;460.64;471.4;480.32;487.5;493.01;496.9;499.23;500;499.23;496.9;493.01;487.5;480.32;471.4;460.64;447.9;433.01;415.74;395.77;372.68;345.83;314.27;276.39;229.06;164.34;0;0;0;0;0;0;0;0;0;0;0;0;0;0;0;0;0;0;0;0;0;0;0;0;0;0;0;0;0;0;0;0;0;0;0;0;0;0;0;0;0;0;0;0;0;0;0;0;0;0;0;0;0;0;0;0;0;0;0;0;0;0;0;0;0;0;0;0;0;0;0;0;0;0;0;0;0;0;0;0;0;0;0;0;0;0;0;0;0;0;0;0;0;0;0;0;33.333;133.33;233.33;333.33;433.33;533.33;633.33;733.33;833.33;816.67;716.67;616.67;516.67;416.67;316.67;216.67;116.67;16.667;-83.333;-66.667;0;0;0;0;0;0;0;0;0;0;0;0;0;0;0;164.34;229.06;276.39;314.27;345.83;372.68;395.77;415.74;433.01;447.9;460.64;471.4;480.32;487.5;493.01;496.9;499.23;500;499.23;496.9;493.01;487.5;480.32;471.4;460.64;447.9;433.01;415.74;395.77;372.68;345.83;314.27;276.39;229.06;164.34;0;0;0;0;0;0;0;0;0;0;0;0;0;0;0;0;0;0;0;0;0;0;0;0;0;0;0;0;0;0;0;0;0;0;0;0;0;0;0;0;0;0;0;0;0;0;0;0;0;0;0;0;0;0;0;0;0;0;0;0;0;0;0;0;0;0;0;0;0;0;0;0;0;0;0;0;0;0;0;0;0;0;0;0;0;0;0;0;0;0;0;0;0;0;0;0;0;66.667;166.67;266.67;366.67;466.67;566.67;666.67;766.67;866.67;783.33;683.33;583.33;483.33;383.33;283.33;183.33;83.333;-16.667;-116.67;-33.333;0;0;0;0;0;0;0;0;0;0;0;0;0;0;0;164.34;229.06;276.39;314.27;345.83;372.68;395.77;415.74;433.01;447.9;460.64;471.4;480.32;487.5;493.01;496.9;499.23;500;499.23;496.9;493.01;487.5;480.32;471.4;460.64;447.9;433.01;415.74;395.77;372.68;345.83;314.27;276.39;229.06;164.34;0;0;0;0;0;0;0;0;0;0;0;0;0;0;0;0;0;0;0;0;0;0;0;0;0;0;0;0;0;0;0;0;0;0;0;0;0;0;0;0;0;0;0;0;0;0;0;0;0;0;0;0;0;0;0;0;0;0;0;0;0;0;0;0;0;0;0;0;0;0;0;0;0;0;0;0;0;0;0;0;0;0;0;0;0;0;0;0;0;0;0;0;0;0;0;0;0;100;200;300;400;500;600;700;800;850;750;650;550;450;350;250;150;50;-50;-100;-5.8208e-10;0;0;0;0;0;0;0;0;0;0;0;0;0;0;0;164.34;229.06;276.39;314.27;345.83;372.68;395.77;415.74;433.01;447.9;460.64;471.4;480.32;487.5;493.01;496.9;499.23;500;499.23;496.9;493.01;487.5;480.32;471.4;460.64;447.9;433.01;415.74;395.77;372.68;345.83;314.27;276.39;229.06;164.34;0;0;0;0;0;0;0;0;0;0;0;0;0;0;0;0;0;0;0;0;0;0;0;0;0;0;0;0;0;0;0;0;0;0;0;0;0;0;0;0;0;0;0;0;0;0;0;0;0;0;0;0;0;0;0;0;0;0;0;0;0;0;0;0;0;0;0;0;0;0;0;0;0;0;0;0;0;0;0;0;0;0;0;0;0;0;0;0;0;0;0;0;0;0;0;0;33.333;133.33;233.33;333.33;433.33;533.33;633.33;733.33;833.33;816.67;716.67;616.67;516.67;416.67;316.67;216.67;116.67;16.667;-83.333;-66.667;0;0;0;0;0;0;0;0;0;0;0;0;0;0;0;164.34;229.06;276.39;314.27;345.83;372.68;395.77;415.74;433.01;447.9;460.64;471.4;480.32;487.5;493.01;496.9;499.23;500;499.23;496.9;493.01;487.5;480.32;471.4;460.64;447.9;433.01;415.74;395.77;372.68;345.83;314.27;276.39;229.06;164.34;0;0;0;0;0;0;0;0;0;0;0;0;0;0;0;0;0;0;0;0;0;0;0;0;0;0;0;0;0;0;0;0;0;0;0;0;0;0;0;0;0;0;0;0;0;0;0;0;0;0;0;0;0;0;0;0;0;0;0;0;0;0;0;0;0;0;0;0;0;0;0;0;0;0;0;0;0;0;0;0;0;0;0;0;0;0;0;0;0;0;0;0;0;0;0;0;0;66.667;166.67;266.67;366.67;466.67;566.67;666.67;766.67;866.67;783.33;683.33;583.33;483.33;383.33;283.33;183.33;83.333;-16.667;-116.67;-33.333;0;0;0;0;0;0;0;0;0;0;0;0;0;0;0;164.34;229.06;276.39;314.27;345.83;372.68;395.77;415.74;433.01;447.9;460.64;471.4;480.32;487.5;493.01;496.9;499.23;500;499.23;496.9;493.01;487.5;480.32;471.4;460.64;447.9;433.01;415.74;395.77;372.68;345.83;314.27;276.39;229.06;164.34;0;0;0;0;0;0;0;0;0;0;0;0;0;0;0;0;0;0;0;0;0;0;0;0;0;0;0;0;0;0;0;0;0;0;0;0;0;0;0;0;0;0;0;0;0;0;0;0;0;0;0;0;0;0;0;0;0;0;0;0;0;0;0;0;0;0;0;0;0;0;0;0;0;0;0;0;0;0;0;0;0;0;0;0;0;0;0;0;0;0;0;0;0;0;0;0;0;100;200;300;400;500;600;700;800;850;750;650;550;450;350;250;150;50;-50;-100;-6.9849e-10;0;0;0;0;0;0;0;0;0;0;0;0;0;0;0;164.34;229.06;276.39;314.27;345.83;372.68;395.77;415.74;433.01;447.9;460.64;471.4;480.32;487.5;493.01;496.9;499.23;500;499.23;496.9;493.01;487.5;480.32;471.4;460.64;447.9;433.01;415.74;395.77;372.68;345.83;314.27;276.39;229.06;164.34;0;0;0;0;0;0;0;0;0;0;0;0;0;0;0;0;0;0;0;0;0;0;0;0;0;0;0;0;0;0;0;0;0;0;0;0;0;0;0;0;0;0;0;0;0;0;0;0;0;0;0;0;0;0;0;0;0;0;0;0;0;0;0;0;0;0;0;0;0;0;0;0;0;0;0;0;0;0;0;0;0;0;0;0;0;0;0;0;0;0;0;0;0;0;0;0;33.333;133.33;233.33;333.33;433.33;533.33;633.33;733.33;833.33;816.67;716.67;616.67;516.67;416.67;316.67;216.67;116.67;16.667;-83.333;-66.667;0;0;0;0;0;0;0;0;0;0;0;0;0;0;0;164.34;229.06;276.39;314.27;345.83;372.68;395.77;415.74;433.01;447.9;460.64;471.4;480.32;487.5;493.01;496.9;499.23;500;499.23;496.9;493.01;487.5;480.32;471.4;460.64;447.9;433.01;415.74;395.77;372.68;345.83;314.27;276.39;229.06;164.34;0;0;0;0;0;0;0;0;0;0;0;0;0;0;0;0;0;0;0;0;0;0;0;0;0;0;0;0;0;0;0;0;0;0;0;0;0;0;0;0;0;0;0;0;0;0;0;0;0;0;0;0;0;0;0;0;0;0;0;0;0;0;0;0;0;0;0;0;0;0;0;0;0;0;0;0;0;0;0;0;0;0;0;0;0;0;0;0;0;0;0;0;0;0;0;0;0;66.667;166.67;266.67;366.67;466.67;566.67;666.67;766.67;866.67;783.33;683.33;583.33;483.33;383.33;283.33;183.33;83.333;-16.667;-116.67;-33.333;0;0;0;0;0;0;0;0;0;0;0;0;0;0;0;164.34;229.06;276.39;314.27;345.83;372.68;395.77;415.74;433.01;447.9;460.64;471.4;480.32;487.5;493.01;496.9;499.23;500;499.23;496.9;493.01;487.5;480.32;471.4;460.64;447.9;433.01;415.74;395.77;372.68;345.83;314.27;276.39;229.06;164.34;0;0;0;0;0;0;0;0;0;0;0;0;0;0;0;0;0;0;0;0;0;0;0;0;0;0;0;0;0;0;0;0;0;0;0;0;0;0;0;0;0;0;0;0;0;0;0;0;0;0;0;0;0;0;0;0;0;0;0;0;0;0;0;0;0;0;0;0;0;0;0;0;0;0;0;0;0;0;0;0;0;0;0;0;0;0;0;0;0;0;0;0;0;0;0;0;0;100;200;300;400;500;600;700;800;850;750;650;550;450;350;250;150;50;-50;-100;-8.1491e-10;0;0;0;0;0;0;0;0;0;0;0;0;0;0;0;164.34;229.06;276.39;314.27;345.83;372.68;395.77;415.74;433.01;447.9;460.64;471.4;480.32;487.5;493.01;496.9;499.23;500;499.23;496.9;493.01;487.5;480.32;471.4;460.64;447.9;433.01;415.74;395.77;372.68;345.83;314.27;276.39;229.06;164.34;0;0;0;0;0;0;0;0;0;0;0;0;0;0;0;0;0;0;0;0;0;0;0;0;0;0;0;0;0;0;0;0;0;0;0;0;0;0;0;0;0;0;0;0;0;0;0;0;0;0;0;0;0;0;0;0;0;0;0;0;0;0;0;0;0;0;0;0;0;0;0;0;0;0;0;0;0;0;0;0;0;0;0;0;0;0;0;0;0;0;0;0;0;0;0;0;33.333;133.33;233.33;333.33;433.33;533.33;633.33;733.33;833.33;816.67;716.67;616.67;516.67;416.67;316.67;216.67;116.67;16.667;-83.333;-66.667;0;0;0;0;0;0;0;0;0;0;0;0;0;0;0;164.34;229.06;276.39;314.27;345.83;372.68;395.77;415.74;433.01;447.9;460.64;471.4;480.32;487.5;493.01;496.9;499.23;500;499.23;496.9;493.01;487.5;480.32;471.4;460.64;447.9;433.01;415.74;395.77;372.68;345.83;314.27;276.39;229.06;164.34;0;0;0;0;0;0;0;0;0;0;0;0;0;0;0;0;0;0;0;0;0;0;0;0;0;0;0;0;0;0;0;0;0;0;0;0;0;0;0;0;0;0;0;0;0;0;0;0;0;0;0;0;0;0;0;0;0;0;0;0;0;0;0;0;0;0;0;0;0;0;0;0;0;0;0;0;0;0;0;0;0;0;0;0;0;0;0;0;0;0;0;0;0;0;0;0;0;66.667;166.67;266.67;366.67;466.67;566.67;666.67;766.67;866.67;783.33;683.33;583.33;483.33;383.33;283.33;183.33;83.333;-16.667;-116.67;-33.333;0;0;0;0;0;0;0;0;0;0;0;0;0;0;0;164.34;229.06;276.39;314.27;345.83;372.68;395.77;415.74;433.01;447.9;460.64;471.4;480.32;487.5;493.01;496.9;499.23;500;499.23;496.9;493.01;487.5;480.32;471.4;460.64;447.9;433.01;415.74;395.77;372.68;345.83;314.27;276.39;229.06;164.34;0;0;0;0;0;0;0;0;0;0;0;0;0;0;0;0;0;0;0;0;0;0;0;0;0;0;0;0;0;0;0;0;0;0;0;0;0;0;0;0;0;0;0;0;0;0;0;0;0;0;0;0;0;0;0;0;0;0;0;0;0;0;0;0;0;0;0;0;0;0;0;0;0;0;0;0;0;0;0;0;0;0;0;0;0;0;0;0;0;0;0;0;0;0;0;0;0;100;200;300;400;500;600;700;800;850;750;650;550;450;350;250;150;50;-50;-100;-1.0477e-09;0;0;0;0;0;0;0;0;0;0;0;0;0;0;0;164.34;229.06;276.39;314.27;345.83;372.68;395.77;415.74;433.01;447.9;460.64;471.4;480.32;487.5;493.01;496.9;499.23;500;499.23;496.9;493.01;487.5;480.32;471.4;460.64;447.9;433.01;415.74;395.77;372.68;345.83;314.27;276.39;229.06;164.34;0;0;0;0;0;0;0;0;0;0;0;0;0;0;0;0;0;0;0;0;0;0;0;0;0;0;0;0;0;0;0;0;0;0;0;0;0;0;0;0;0;0;0;0;0;0;0;0;0;0;0;0;0;0;0;0;0;0;0;0;0;0;0;0;0;0;0;0;0;0;0;0;0;0;0;0;0;0;0;0;0;0;0;0;0;0;0;0;0;0;0;0;0;0;0;0;33.333;133.33;233.33;333.33;433.33;533.33;633.33;733.33;833.33;816.67;716.67;616.67;516.67;416.67;316.67;216.67;116.67;16.667;-83.333;-66.667;0;0;0;0;0;0;0;0;0;0;0;0;0;0;0;164.34;229.06;276.39;314.27;345.83;372.68;395.77;415.74;433.01;447.9;460.64;471.4;480.32;487.5;493.01;496.9;499.23;500;499.23;496.9;493.01;487.5;480.32;471.4;460.64;447.9;433.01;415.74;395.77;372.68;345.83;314.27;276.39;229.06;164.34;0;0;0;0;0;0;0;0;0;0;0;0;0;0;0;0;0;0;0;0;0;0;0;0;0;0;0;0;0;0;0;0;0;0;0;0;0;0;0;0;0;0;0;0;0;0;0;0;0;0;0;0;0;0;0;0;0;0;0;0;0;0;0;0;0;0;0;0;0;0;0;0;0;0;0;0;0;0;0;0;0;0;0;0;0;0;0;0;0;0;0;0;0;0;0;0;0;66.667;166.67;266.67;366.67;466.67;566.67;666.67;766.67;866.67;783.33;683.33;583.33;483.33;383.33;283.33;183.33;83.333;-16.667;-116.67;-33.333;0;0;0;0;0;0;0;0;0;0;0;0;0;0;0;164.34;229.06;276.39;314.27;345.83;372.68;395.77;415.74;433.01;447.9;460.64;471.4;480.32;487.5;493.01;496.9;499.23;500;499.23;496.9;493.01;487.5;480.32;471.4;460.64;447.9;433.01;415.74;395.77;372.68;345.83;314.27;276.39;229.06;164.34;0;0;0;0;0;0;0;0;0;0;0;0;0;0;0;0;0;0;0;0;0;0;0;0;0;0;0;0;0;0;0;0;0;0;0;0;0;0;0;0;0;0;0;0;0;0;0;0;0;0;0;0;0;0;0;0;0;0;0;0;0;0;0;0;0;0;0;0;0;0;0;0;0;0;0;0;0;0;0;0;0;0;0;0;0;0;0;0;0;0;0;0;0;0;0;0;0;100;200;300;400;500;600;700;800;850;750;650;550;450;350;250;150;50;-50;-100;-1.0477e-09;0;0;0;0;0;0;0;0;0;0;0;0;0;0;0;164.34;229.06;276.39;314.27;345.83;372.68;395.77;415.74;433.01;447.9;460.64;471.4;480.32;487.5;493.01;496.9;499.23;500;499.23;496.9;493.01;487.5;480.32;471.4;460.64;447.9;433.01;415.74;395.77;372.68;345.83;314.27;276.39;229.06;164.34;0;0;0;0;0;0;0;0;0;0;0;0;0;0;0;0;0;0;0;0;0;0;0;0;0;0;0;0;0;0;0;0;0;0;0;0;0;0;0;0;0;0;0;0;0;0;0;0;0;0;0;0;0;0;0;0;0;0;0;0;0;0;0;0;0;0;0;0;0;0;0;0;0;0;0;0;0;0;0;0;0;0;0;0;0;0;0;0;0;0;0;0;0;0;0;0;33.333;133.33;233.33;333.33;433.33;533.33;633.33;733.33;833.33;816.67;716.67;616.67;516.67;416.67;316.67;216.67;116.67;16.667;-83.333;-66.667;0;0;0;0;0;0;0;0;0;0;0;0;0;0;0;164.34;229.06;276.39;314.27;345.83;372.68;395.77;415.74;433.01;447.9;460.64;471.4;480.32;487.5;493.01;496.9;499.23;500;499.23;496.9;493.01;487.5;480.32;471.4;460.64;447.9;433.01;415.74;395.77;372.68;345.83;314.27;276.39;229.06;164.34;0;0;0;0;0;0;0;0;0;0;0;0;0;0;0;0;0;0;0;0;0;0;0;0;0;0;0;0;0;0;0;0;0;0;0;0;0;0;0;0;0;0;0;0;0;0;0;0;0;0;0;0;0;0;0;0;0;0;0;0;0;0;0;0;0;0;0;0;0;0;0;0;0;0;0;0;0;0;0;0;0;0;0;0;0;0;0;0;0;0;0;0;0;0;0;0;0;66.667;166.67;266.67;366.67;466.67;566.67;666.67;766.67;866.67;783.33;683.33;583.33;483.33;383.33;283.33;183.33;83.333;-16.667;-116.67;-33.333;0;0;0;0;0;0;0;0;0;0;0;0;0;0;0;164.34;229.06;276.39;314.27;345.83;372.68;395.77;415.74;433.01;447.9;460.64;471.4;480.32;487.5;493.01;496.9;499.23;500;499.23;496.9;493.01;487.5;480.32;471.4;460.64;447.9;433.01;415.74;395.77;372.68;345.83;314.27;276.39;229.06;164.34;0;0;0;0;0;0;0;0;0;0;0;0;0;0;0;0;0;0;0;0;0;0;0;0;0;0;0;0;0;0;0;0;0;0;0;0;0;0;0;0;0;0;0;0;0;0;0;0;0;0;0;0;0;0;0;0;0;0;0;0;0;0;0;0;0;0;0;0;0;0;0;0;0;0;0;0;0;0;0;0;0;0;0;0;0;0;0;0;0;0;0;0;0;0;0;0;0;100;200;300;400;500;600;700;800;850;750;650;550;450;350;250;150;50;-50;-100;-1.2806e-09;0;0;0;0;0;0;0;0;0;0;0;0;0;0;0;164.34;229.06;276.39;314.27;345.83;372.68;395.77;415.74;433.01;447.9;460.64;471.4;480.32;487.5;493.01;496.9;499.23;500;499.23;496.9;493.01;487.5;480.32;471.4;460.64;447.9;433.01;415.74;395.77;372.68;345.83;314.27;276.39;229.06;164.34;0;0;0;0;0;0;0;0;0;0;0;0;0;0;0;0;0;0;0;0;0;0;0;0;0;0;0;0;0;0;0;0;0;0;0;0;0;0;0;0;0;0;0;0;0;0;0;0;0;0;0;0;0;0;0;0;0;0;0;0;0;0;0;0;0;0;0;0;0;0;0;0;0;0;0;0;0;0;0;0;0;0;0;0;0;0;0;0;0;0;0;0;0;0;0;0;33.333;133.33;233.33;333.33;433.33;533.33;633.33;733.33;833.33;816.67;716.67;616.67;516.67;416.67;316.67;216.67;116.67;16.667;-83.333;-66.667;0;0;0;0;0;0;0;0;0;0;0;0;0;0;0;164.34;229.06;276.39;314.27;345.83;372.68;395.77;415.74;433.01;447.9;460.64;471.4;480.32;487.5;493.01;496.9;499.23;500;499.23;496.9;493.01;487.5;480.32;471.4;460.64;447.9;433.01;415.74;395.77;372.68;345.83;314.27;276.39;229.06;164.34;0;0;0;0;0;0;0;0;0;0;0;0;0;0;0;0;0;0;0;0;0;0;0;0;0;0;0;0;0;0;0;0;0;0;0;0;0;0;0;0;0;0;0;0;0;0;0;0;0;0;0;0;0;0;0;0;0;0;0;0;0;0;0;0;0;0;0;0;0;0;0;0;0;0;0;0;0;0;0;0;0;0;0;0;0;0;0;0;0;0;0;0;0;0;0;0;0;66.667;166.67;266.67;366.67;466.67;566.67;666.67;766.67;866.67;783.33;683.33;583.33;483.33;383.33;283.33;183.33;83.333;-16.667;-116.67;-33.333;0;0;0;0;0;0;0;0;0;0;0;0;0;0;0;164.34;229.06;276.39;314.27;345.83;372.68;395.77;415.74;433.01;447.9;460.64;471.4;480.32;487.5;493.01;496.9;499.23;500;499.23;496.9;493.01;487.5;480.32;471.4;460.64;447.9;433.01;415.74;395.77;372.68;345.83;314.27;276.39;229.06;164.34;0;0;0;0;0;0;0;0;0;0;0;0;0;0;0;0;0;0;0;0;0;0;0;0;0;0;0;0;0;0;0;0;0;0;0;0;0;0;0;0;0;0;0;0;0;0;0;0;0;0;0;0;0;0;0;0;0;0;0;0;0;0;0;0;0;0;0;0;0;0;0;0;0;0;0;0;0;0;0;0;0;0;0;0;0;0;0;0;0;0;0;0;0;0;0;0;0;100;200;300;400;500;600;700;800;850;750;650;550;450;350;250;150;50;-50;-100;-1.5134e-09;0;0;0;0;0;0;0;0;0;0;0;0;0;0;0;164.34;229.06;276.39;314.27;345.83;372.68;395.77;415.74;433.01;447.9;460.64;471.4;480.32;487.5;493.01;496.9;499.23;500;499.23;496.9;493.01;487.5;480.32;471.4;460.64;447.9;433.01;415.74;395.77;372.68;345.83;314.27;276.39;229.06;164.34;0;0;0;0;0;0;0;0;0;0;0;0;0;0;0;0;0;0;0;0;0;0;0;0;0;0;0;0;0;0;0;0;0;0;0;0;0;0;0;0;0;0;0;0;0;0;0;0;0;0;0;0;0;0;0;0;0;0;0;0;0;0;0;0;0;0;0;0;0;0;0;0;0;0;0;0;0;0;0;0;0;0;0;0;0;0;0;0;0;0;0;0;0;0;0;0;33.333;133.33;233.33;333.33;433.33;533.33;633.33;733.33;833.33;816.67;716.67;616.67;516.67;416.67;316.67;216.67;116.67;16.667;-83.333;-66.667;0;0;0;0;0;0;0;0;0;0;0;0;0;0;0;164.34;229.06;276.39;314.27;345.83;372.68;395.77;415.74;433.01;447.9;460.64;471.4;480.32;487.5;493.01;496.9;499.23;500;499.23;496.9;493.01;487.5;480.32;471.4;460.64;447.9;433.01;415.74;395.77;372.68;345.83;314.27;276.39;229.06;164.34;0;0;0;0;0;0;0;0;0;0;0;0;0;0;0;0;0;0;0;0;0;0;0;0;0;0;0;0;0;0;0;0;0;0;0;0;0;0;0;0;0;0;0;0;0;0;0;0;0;0;0;0;0;0;0;0;0;0;0;0;0;0;0;0;0;0;0;0;0;0;0;0;0;0;0;0;0;0;0;0;0;0;0;0;0;0;0;0;0;0;0;0;0;0;0;0;0;66.667;166.67;266.67;366.67;466.67;566.67;666.67;766.67;866.67;783.33;683.33;583.33;483.33;383.33;283.33;183.33;83.333;-16.667;-116.67;-33.333;0;0;0;0;0;0;0;0;0;0;0;0;0;0;0;164.34;229.06;276.39;314.27;345.83;372.68;395.77;415.74;433.01;447.9;460.64;471.4;480.32;487.5;493.01;496.9;499.23;500;499.23;496.9;493.01;487.5;480.32;471.4;460.64;447.9;433.01;415.74;395.77;372.68;345.83;314.27;276.39;229.06;164.34;0;0;0;0;0;0;0;0;0;0;0;0;0;0;0;0;0;0;0;0;0;0;0;0;0;0;0;0;0;0;0;0;0;0;0;0;0;0;0;0;0;0;0;0;0;0;0;0;0;0;0;0;0;0;0;0;0;0;0;0;0;0;0;0;0;0;0;0;0;0;0;0;0;0;0;0;0;0;0;0;0;0;0;0;0;0;0;0;0;0;0;0;0;0;0;0;0;100;200;300;400;500;600;700;800;850;750;650;550;450;350;250;150;50;-50;-100;-1.5134e-09;0;0;0;0;0;0;0;0;0;0;0;0;0;0;0;164.34;229.06;276.39;314.27;345.83;372.68;395.77;415.74;433.01;447.9;460.64;471.4;480.32;487.5;493.01;496.9;499.23;500;499.23;496.9;493.01;487.5;480.32;471.4;460.64;447.9;433.01;415.74;395.77;372.68;345.83;314.27;276.39;229.06;164.34;0;0;0;0;0;0;0;0;0;0;0;0;0;0;0;0;0;0;0;0;0;0;0;0;0;0;0;0;0;0;0;0;0;0;0;0;0;0;0;0;0;0;0;0;0;0;0;0;0;0;0;0;0;0;0;0;0;0;0;0;0;0;0;0;0;0;0;0;0;0;0;0;0;0;0;0;0;0;0;0;0;0;0;0;0;0;0;0;0;0;0;0;0;0;0;0;33.333;133.33;233.33;333.33;433.33;533.33;633.33;733.33;833.33;816.67;716.67;616.67;516.67;416.67;316.67;216.67;116.67;16.667;-83.333;-66.667;0;0;0;0;0;0;0;0;0;0;0;0;0;0;0;164.34;229.06;276.39;314.27;345.83;372.68;395.77;415.74;433.01;447.9;460.64;471.4;480.32;487.5;493.01;496.9;499.23;500;499.23;496.9;493.01;487.5;480.32;471.4;460.64;447.9;433.01;415.74;395.77;372.68;345.83;314.27;276.39;229.06;164.34;0;0;0;0;0;0;0;0;0;0;0;0;0;0;0;0;0;0;0;0;0;0;0;0;0;0;0;0;0;0;0;0;0;0;0;0;0;0;0;0;0;0;0;0;0;0;0;0;0;0;0;0;0;0;0;0;0;0;0;0;0;0;0;0;0;0;0;0;0;0;0;0;0;0;0;0;0;0;0;0;0;0;0;0;0;0;0;0;0;0;0;0;0;0;0;0;0;66.667;166.67;266.67;366.67;466.67;566.67;666.67;766.67;866.67;783.33;683.33;583.33;483.33;383.33;283.33;183.33;83.333;-16.667;-116.67;-33.333;0;0;0;0;0;0;0;0;0;0;0;0;0;0;0;164.34;229.06;276.39;314.27;345.83;372.68;395.77;415.74;433.01;447.9;460.64;471.4;480.32;487.5;493.01;496.9;499.23;500;499.23;496.9;493.01;487.5;480.32;471.4;460.64;447.9;433.01;415.74;395.77;372.68;345.83;314.27;276.39;229.06;164.34;0;0;0;0;0;0;0;0;0;0;0;0;0;0;0;0;0;0;0;0;0;0;0;0;0;0;0;0;0;0;0;0;0;0;0;0;0;0;0;0;0;0;0;0;0;0;0;0;0;0;0;0;0;0;0;0;0;0;0;0;0;0;0;0;0;0;0;0;0;0;0;0;0;0;0;0;0;0;0;0;0;0;0;0;0;0;0;0;0;0;0;0;0;0;0;0;0;100;200;300;400;500;600;700;800;850;750;650;550;450;350;250;150;50;-50;-100;-1.7462e-09;0;0;0;0;0;0;0;0;0;0;0;0;0;0;0;164.34;229.06;276.39;314.27;345.83;372.68;395.77;415.74;433.01;447.9;460.64;471.4;480.32;487.5;493.01;496.9;499.23;500;499.23;496.9;493.01;487.5;480.32;471.4;460.64;447.9;433.01;415.74;395.77;372.68;345.83;314.27;276.39;229.06;164.34;0;0;0;0;0;0;0;0;0;0;0;0;0;0;0;0;0;0;0;0;0;0;0;0;0;0;0;0;0;0;0;0;0;0;0;0;0;0;0;0;0;0;0;0;0;0;0;0;0;0;0;0;0;0;0;0;0;0;0;0;0;0;0;0;0;0;0;0;0;0;0;0;0;0;0;0;0;0;0;0;0;0;0;0;0;0;0;0;0;0;0;0;0;0;0;0;33.333;133.33;233.33;333.33;433.33;533.33;633.33;733.33;833.33;816.67;716.67;616.67;516.67;416.67;316.67;216.67;116.67;16.667;-83.333;-66.667;0;0;0;0;0;0;0;0;0;0;0;0;0;0;0;164.34;229.06;276.39;314.27;345.83;372.68;395.77;415.74;433.01;447.9;460.64;471.4;480.32;487.5;493.01;496.9;499.23;500;499.23;496.9;493.01;487.5;480.32;471.4;460.64;447.9;433.01;415.74;395.77;372.68;345.83;314.27;276.39;229.06;164.34;0;0;0;0;0;0;0;0;0;0;0;0;0;0;0;0;0;0;0;0;0;0;0;0;0;0;0;0;0;0;0;0;0;0;0;0;0;0;0;0;0;0;0;0;0;0;0;0;0;0;0;0;0;0;0;0;0;0;0;0;0;0;0;0;0;0;0;0;0;0;0;0;0;0;0;0;0;0;0;0;0;0;0;0;0;0;0;0;0;0;0;0;0;0;0;0;0;66.667;166.67;266.67;366.67;466.67;566.67;666.67;766.67;866.67;783.33;683.33;583.33;483.33;383.33;283.33;183.33;83.333;-16.667;-116.67;-33.333;0;0;0;0;0;0;0;0;0;0;0;0;0;0;0;164.34;229.06;276.39;314.27;345.83;372.68;395.77;415.74;433.01;447.9;460.64;471.4;480.32;487.5;493.01;496.9;499.23;500;499.23;496.9;493.01;487.5;480.32;471.4;460.64;447.9;433.01;415.74;395.77;372.68;345.83;314.27;276.39;229.06;164.34;0;0;0;0;0;0;0;0;0;0;0;0;0;0;0;0;0;0;0;0;0;0;0;0;0;0;0;0;0;0;0;0;0;0;0;0;0;0;0;0;0;0;0;0;0;0;0;0;0;0;0;0;0;0;0;0;0;0;0;0;0;0;0;0;0;0;0;0;0;0;0;0;0;0;0;0;0;0;0;0;0;0;0;0;0;0;0;0;0;0;0;0;0;0;0;0;0;100;200;300;400;500;600;700;800;850;750;650;550;450;350;250;150;50;-50;-100;-1.8626e-09;0;0;0;0;0;0;0;0;0;0;0;0;0;0;0;164.34;229.06;276.39;314.27;345.83;372.68;395.77;415.74;433.01;447.9;460.64;471.4;480.32;487.5;493.01;496.9;499.23;500;499.23;496.9;493.01;487.5;480.32;471.4;460.64;447.9;433.01;415.74;395.77;372.68;345.83;314.27;276.39;229.06;164.34;0;0;0;0;0;0;0;0;0;0;0;0;0;0;0;0;0;0;0;0;0;0;0;0;0;0;0;0;0;0;0;0;0;0;0;0;0;0;0;0;0;0;0;0;0;0;0;0;0;0;0;0;0;0;0;0;0;0;0;0;0;0;0;0;0;0;0;0;0;0;0;0;0;0;0;0;0;0;0;0;0;0;0;0;0;0;0;0;0;0;0;0;0;0;0;0;33.333;133.33;233.33;333.33;433.33;533.33;633.33;733.33;833.33;816.67;716.67;616.67;516.67;416.67;316.67;216.67;116.67;16.667;-83.333;-66.667;0;0;0;0;0;0;0;0;0;0;0;0;0;0;0;164.34;229.06;276.39;314.27;345.83;372.68;395.77;415.74;433.01;447.9;460.64;471.4;480.32;487.5;493.01;496.9;499.23;500;499.23;496.9;493.01;487.5;480.32;471.4;460.64;447.9;433.01;415.74;395.77;372.68;345.83;314.27;276.39;229.06;164.34;0;0;0;0;0;0;0;0;0;0;0;0;0;0;0;0;0;0;0;0;0;0;0;0;0;0;0;0;0;0;0;0;0;0;0;0;0;0;0;0;0;0;0;0;0;0;0;0;0;0;0;0;0;0;0;0;0;0;0;0;0;0;0;0;0;0;0;0;0;0;0;0;0;0;0;0;0;0;0;0;0;0;0;0;0;0;0;0;0;0;0;0;0;0;0;0;0;66.667;166.67;266.67;366.67;466.67;566.67;666.67;766.67;866.67;783.33;683.33;583.33;483.33;383.33;283.33;183.33;83.333;-16.667;-116.67;-33.333;0;0;0;0;0;0;0;0;0;0;0;0;0;0;0;164.34;229.06;276.39;314.27;345.83;372.68;395.77;415.74;433.01;447.9;460.64;471.4;480.32;487.5;493.01;496.9;499.23;500;499.23;496.9;493.01;487.5;480.32;471.4;460.64;447.9;433.01;415.74;395.77;372.68;345.83;314.27;276.39;229.06;164.34;0;0;0;0;0;0;0;0;0;0;0;0;0;0;0;0;0;0;0;0;0;0;0;0;0;0;0;0;0;0;0;0;0;0;0;0;0;0;0;0;0;0;0;0;0;0;0;0;0;0;0;0;0;0;0;0;0;0;0;0;0;0;0;0;0;0;0;0;0;0;0;0;0;0;0;0;0;0;0;0;0;0;0;0;0;0;0;0;0;0;0;0;0;0;0;0;0;100;200;300;400;500;600;700;800;850;750;650;550;450;350;250;150;50;-50;-100;-1.8626e-09;0;0;0;0;0;0;0;0;0;0;0;0;0;0;0;164.34;229.06;276.39;314.27;345.83;372.68;395.77;415.74;433.01;447.9;460.64;471.4;480.32;487.5;493.01;496.9;499.23;500;499.23;496.9;493.01;487.5;480.32;471.4;460.64;447.9;433.01;415.74;395.77;372.68;345.83;314.27;276.39;229.06;164.34;0;0;0;0;0;0;0;0;0;0;0;0;0;0;0;0;0;0;0;0;0;0;0;0;0;0;0;0;0;0;0;0;0;0;0;0;0;0;0;0;0;0;0;0;0;0;0;0;0;0;0;0;0;0;0;0;0;0;0;0;0;0;0;0;0;0;0;0;0;0;0;0;0;0;0;0;0;0;0;0;0;0;0;0;0;0;0;0;0;0;0;0;0;0;0;0;33.333;133.33;233.33;333.33;433.33;533.33;633.33;733.33;833.33;816.67;716.67;616.67;516.67;416.67;316.67;216.67;116.67;16.667;-83.333;-66.667;0;0;0;0;0;0;0;0;0;0;0;0;0;0;0;164.34;229.06;276.39;314.27;345.83;372.68;395.77;415.74;433.01;447.9;460.64;471.4;480.32;487.5;493.01;496.9;499.23;500;499.23;496.9;493.01;487.5;480.32;471.4;460.64;447.9;433.01;415.74;395.77;372.68;345.83;314.27;276.39;229.06;164.34;0;0;0;0;0;0;0;0;0;0;0;0;0;0;0;0;0;0;0;0;0;0;0;0;0;0;0;0;0;0;0;0;0;0;0;0;0;0;0;0;0;0;0;0;0;0;0;0;0;0;0;0;0;0;0;0;0;0;0;0;0;0;0;0;0;0;0;0;0;0;0;0;0;0;0;0;0;0;0;0;0;0;0;0;0;0;0;0;0;0;0;0;0;0;0;0;0;66.667;166.67;266.67;366.67;466.67;566.67;666.67;766.67;866.67;783.33;683.33;583.33;483.33;383.33;283.33;183.33;83.333;-16.667;-116.67;-33.333;0;0;0;0;0;0;0;0;0;0;0;0;0;0;0;164.34;229.06;276.39;314.27;345.83;372.68;395.77;415.74;433.01;447.9;460.64;471.4;480.32;487.5;493.01;496.9;499.23;500;499.23;496.9;493.01;487.5;480.32;471.4;460.64;447.9;433.01;415.74;395.77;372.68;345.83;314.27;276.39;229.06;164.34;0
