50
0;0;0;0;0;0;0;0;0;0;0;0;0;0;0;0;0;0;0;0;0;0;0;0;0;0;0;0;0;180;700;1055;535;15;180;0;0;0;0;314.27;415.74;471.4;496.9;496.9;471.4;415.74;314.27;0;0;0;0;0;0;0;0;0;0;0;0;0;0;0;0;0;0;0;0;0;0;0;0;0;0;0;0;100;620;1135;615;95;100;0;0;0;0;314.27;415.74;471.4;496.9;496.9;471.4;415.74;314.27;0;0;0;0;0;0;0;0;0;0;0;0;0;0;0;0;0;0;0;0;0;0;0;0;0;0;0;0;20;540;1060;695;175;20;0;0;0;0;314.27;415.74;471.4;496.9;496.9;471.4;415.74;314.27;0;0;0;0;0;0;0;0;0;0;0;0;0;0;0;0;0;0;0;0;0;0;0;0;0;0;0;0;0;460;980;775;255;-60;0;0;0;0;314.27;415.74;471.4;496.9;496.9;471.4;415.74;314.27;0;0;0;0;0;0;0;0;0;0;0;0;0;0;0;0;0;0;0;0;0;0;0;0;0;0;0;0;0;380;900;855;335;-140;0;0;0;0;314.27;415.74;471.4;496.9;496.9;471.4;415.74;314.27;0;0;0;0;0;0;0;0;0;0;0;0;0;0;0;0;0;0;0;0;0;0;0;0;0;0;0;0;0;300;820;935;415;-105;300;0;0;0;314.27;415.74;471.4;496.9;496.9;471.4;415.74;314.27;0;0;0;0;0;0;0;0;0;0;0;0;0;0;0;0;0;0;0;0;0;0;0;0;0;0;0;0;0;220;740;1015;495;-25;220;0;0;0;0;314.27;415.74;471.4;496.9;496.9;471.4;415.74;314.27;0;0;0;0;0;0;0;0;0;0;0;0;0;0;0;0;0;0;0;0;0;0;0;0;0;0;0;0;140;660;1095;575;55;140;0;0;0;0;314.27;415.74;471.4;496.9;496.9;471.4;415.74;314.27;0;0;0;0;0;0;0;0;0;0;0;0;0;0;0;0;0;0;0;0;0;0;0;0;0;0;0;0;60;580;1100;655;135;60;0;0;0;0;314.27;415.74;471.4;496.9;496.9;471.4;415.74;314.27;0;0;0;0;0;0;0;0;0;0;0;0;0;0;0;0;0;0;0;0;0;0;0;0;0;0;0;0;0;500;1020;735;215;-20;0;0;0;0;314.27;415.74;471.4;496.9;496.9;471.4;415.74;314.27;0;0;0;0;0;0;0;0;0;0;0;0;0;0;0;0;0;0;0;0;0;0;0;0;0;0;0;0;0;420;940;815;295;-100;0;0;0;0;314.27;415.74;471.4;496.9;496.9;471.4;415.74;314.27;0;0;0;0;0;0;0;0;0;0;0;0;0;0;0;0;0;0;0;0;0;0;0;0;0;0;0;0;0;340;860;895;375;-145;340;0;0;0;314.27;415.74;471.4;496.9;496.9;471.4;415.74;314.27;0;0;0;0;0;0;0;0;0;0;0;0;0;0;0;0;0;0;0;0;0;0;0;0;0;0;0;0;0;260;780;975;455;-65;260;0;0;0;314.27;415.74;471.4;496.9;496.9;471.4;415.74;314.27;0;0;0;0;0;0;0;0;0;0;0;0;0;0;0;0;0;0;0;0;0;0;0;0;0;0;0;0;0;180;700;1055;535;15;180;0;0;0;0;314.27;415.74;471.4;496.9;496.9;471.4;415.74;314.27;0;0;0;0;0;0;0;0;0;0;0;0;0;0;0;0;0;0;0;0;0;0;0;0;0;0;0;0;100;620;1135;615;95;100;0;0;0;0;314.27;415.74;471.4;496.9;496.9;471.4;415.74;314.27;0;0;0;0;0;0;0;0;0;0;0;0;0;0;0;0;0;0;0;0;0;0;0;0;0;0;0;0;20;540;1060;695;175;20;0;0;0;0;314.27;415.74;471.4;496.9;496.9;471.4;415.74;314.27;0;0;0;0;0;0;0;0;0;0;0;0;0;0;0;0;0;0;0;0;0;0;0;0;0;0;0;0;0;460;980;775;255;-60;0;0;0;0;314.27;415.74;471.4;496.9;496.9;471.4;415.74;314.27;0;0;0;0;0;0;0;0;0;0;0;0;0;0;0;0;0;0;0;0;0;0;0;0;0;0;0;0;0;380;900;855;335;-140;0;0;0;0;314.27;415.74;471.4;496.9;496.9;471.4;415.74;314.27;0;0;0;0;0;0;0;0;0;0;0;0;0;0;0;0;0;0;0;0;0;0;0;0;0;0;0;0;0;300;820;935;415;-105;300;0;0;0;314.27;415.74;471.4;496.9;496.9;471.4;415.74;314.27;0;0;0;0;0;0;0;0;0;0;0;0;0;0;0;0;0;0;0;0;0;0;0;0;0;0;0;0;0;220;740;1015;495;-25;220;0;0;0;0;314.27;415.74;471.4;496.9;496.9;471.4;415.74;314.27;0;0;0;0;0;0;0;0;0;0;0;0;0;0;0;0;0;0;0;0;0;0;0;0;0;0;0;0;140;660;1095;575;55;140;0;0;0;0;314.27;415.74;471.4;496.9;496.9;471.4;415.74;314.27;0;0;0;0;0;0;0;0;0;0;0;0;0;0;0;0;0;0;0;0;0;0;0;0;0;0;0;0;60;580;1100;655;135;60;0;0;0;0;314.27;415.74;471.4;496.9;496.9;471.4;415.74;314.27;0;0;0;0;0;0;0;0;0;0;0;0;0;0;0;0;0;0;0;0;0;0;0;0;0;0;0;0;0;500;1020;735;215;-20;0;0;0;0;314.27;415.74;471.4;496.9;496.9;471.4;415.74;314.27;0;0;0;0;0;0;0;0;0;0;0;0;0;0;0;0;0;0;0;0;0;0;0;0;0;0;0;0;0;420;940;815;295;-100;0;0;0;0;314.27;415.74;471.4;496.9;496.9;471.4;415.74;314.27;0;0;0;0;0;0;0;0;0;0;0;0;0;0;0;0;0;0;0;0;0;0;0;0;0;0;0;0;0;340;860;895;375;-145;340;0;0;0;314.27;415.74;471.4;496.9;496.9;471.4;415.74;314.27;0;0;0;0;0;0;0;0;0;0;0;0;0;0;0;0;0;0;0;0;0;0;0;0;0;0;0;0;0;260;780;975;455;-65;260;0;0;0;0;314.27;415.74;471.4;496.9;496.9;471.4;415.74;314.27;0;0;0;0;0;0;0;0;0;0;0;0;0;0;0;0;0;0;0;0;0;0;0;0;0;0;0;0;180;700;1055;535;15;180;0;0;0;0;314.27;415.74;471.4;496.9;496.9;471.4;415.74;314.27;0;0;0;0;0;0;0;0;0;0;0;0;0;0;0;0;0;0;0;0;0;0;0;0;0;0;0;0;100;620;1135;615;95;100;0;0;0;0;314.27;415.74;471.4;496.9;496.9;471.4;415.74;314.27;0;0;0;0;0;0;0;0;0;0;0;0;0;0;0;0;0;0;0;0;0;0;0;0;0;0;0;0;20;540;1060;695;175;20;0;0;0;0;314.27;415.74;471.4;496.9;496.9;471.4;415.74;314.27;0;0;0;0;0;0;0;0;0;0;0;0;0;0;0;0;0;0;0;0;0;0;0;0;0;0;0;0;0;460;980;775;255;-60;0;0;0;0;314.27;415.74;471.4;496.9;496.9;471.4;415.74;314.27;0;0;0;0;0;0;0;0;0;0;0;0;0;0;0;0;0;0;0;0;0;0;0;0;0;0;0;0;0;380;900;855;335;-140;0;0;0;0;314.27;415.74;471.4;496.9;496.9;471.4;415.74;314.27;0;0;0;0;0;0;0;0;0;0;0;0;0;0;0;0;0;0;0;0;0;0;0;0;0;0;0;0;0;300;820;935;415;-105;300;0;0;0;314.27;415.74;471.4;496.9;496.9;471.4;415.74;314.27;0;0;0;0;0;0;0;0;0;0;0;0;0;0;0;0;0;0;0;0;0;0;0;0;0;0;0;0;0;220;740;1015;495;-25;220;0;0;0;0;314.27;415.74;471.4;496.9;496.9;471.4;415.74;314.27;0;0;0;0;0;0;0;0;0;0;0;0;0;0;0;0;0;0;0;0;0;0;0;0;0;0;0;0;140;660;1095;575;55;140;0;0;0;0;314.27;415.74;471.4;496.9;496.9;471.4;415.74;314.27;0;0;0;0;0;0;0;0;0;0;0;0;0;0;0;0;0;0;0;0;0;0;0;0;0;0;0;0;60;580;1100;655;135;60;0;0;0;0;314.27;415.74;471.4;496.9;496.9;471.4;415.74;314.27;0;0;0;0;0;0;0;0;0;0;0;0;0;0;0;0;0;0;0;0;0;0;0;0;0;0;0;0;0;500;1020;735;215;-20;0;0;0;0;314.27;415.74;471.4;496.9;496.9;471.4;415.74;314.27;0;0;0;0;0;0;0;0;0;0;0;0;0;0;0;0;0;0;0;0;0;0;0;0;0;0;0;0;0;420;940;815;295;-100;0;0;0;0;314.27;415.74;471.4;496.9;496.9;471.4;415.74;314.27;0;0;0;0;0;0;0;0;0;0;0;0;0;0;0;0;0;0;0;0;0;0;0;0;0;0;0;0;0;340;860;895;375;-145;340;0;0;0;314.27;415.74;471.4;496.9;496.9;471.4;415.74;314.27;0;0;0;0;0;0;0;0;0;0;0;0;0;0;0;0;0;0;0;0;0;0;0;0;0;0;0;0;0;260;780;975;455;-65;260;0;0;0;0;314.27;415.74;471.4;496.9;496.9;471.4;415.74;314.27;0;0;0;0;0;0;0;0;0;0;0;0;0;0;0;0;0;0;0;0;0;0;0;0;0;0;0;0;180;700;1055;535;15;180;0;0;0;0;314.27;415.74;471.4;496.9;496.9;471.4;415.74;314.27;0;0;0;0;0;0;0;0;0;0;0;0;0;0;0;0;0;0;0;0;0;0;0;0;0;0;0;0;100;620;1135;615;95;100;0;0;0;0;314.27;415.74;471.4;496.9;496.9;471.4;415.74;314.27;0;0;0;0;0;0;0;0;0;0;0;0;0;0;0;0;0;0;0;0;0;0;0;0;0;0;0;0;20;540;1060;695;175;20;0;0;0;0;314.27;415.74;471.4;496.9;496.9;471.4;415.74;314.27;0;0;0;0;0;0;0;0;0;0;0;0;0;0;0;0;0;0;0;0;0;0;0;0;0;0;0;0;0;460;980;775;255;-60;0;0;0;0;314.27;415.74;471.4;496.9;496.9;471.4;415.74;314.27;0;0;0;0;0;0;0;0;0;0;0;0;0;0;0;0;0;0;0;0;0;0;0;0;0;0;0;0;0;380;900;855;335;-140;0;0;0;0;314.27;415.74;471.4;496.9;496.9;471.4;415.74;314.27;0;0;0;0;0;0;0;0;0;0;0;0;0;0;0;0;0;0;0;0;0;0;0;0;0;0;0;0;0;300;820;935;415;-105;300;0;0;0;314.27;415.74;471.4;496.9;496.9;471.4;415.74;314.27;0;0;0;0;0;0;0;0;0;0;0;0;0;0;0;0;0;0;0;0;0;0;0;0;0;0;0;0;0;220;740;1015;495;-25;220;0;0;0;0;314.27;415.74;471.4;496.9;496.9;471.4;415.74;314.27;0;0;0;0;0;0;0;0;0;0;0;0;0;0;0;0;0;0;0;0;0;0;0;0;0;0;0;0;140;660;1095;575;55;140;0;0;0;0;314.27;415.74;471.4;496.9;496.9;471.4;415.74;314.27;0;0;0;0;0;0;0;0;0;0;0;0;0;0;0;0;0;0;0;0;0;0;0;0;0;0;0;0;60;580;1100;655;135;60;0;0;0;0;314.27;415.74;471.4;496.9;496.9;471.4;415.74;314.27;0;0;0;0;0;0;0;0;0;0;0;0;0;0;0;0;0;0;0;0;0;0;0;0;0;0;0;0;0;500;1020;735;215;-20;0;0;0;0;314.27;415.74;471.4;496.9;496.9;471.4;415.74;314.27;0;0;0;0;0;0;0;0;0;0;0;0;0;0;0;0;0;0;0;0;0;0;0;0;0;0;0;0;0;420;940;815;295;-100;0;0;0;0;314.27;415.74;471.4;496.9;496.9;471.4;415.74;314.27;0;0;0;0;0;0;0;0;0;0;0;0;0;0;0;0;0;0;0;0;0;0;0;0;0;0;0;0;0;340;860;895;375;-145;340;0;0;0;314.27;415.74;471.4;496.9;496.9;471.4;415.74;314.27;0;0;0;0;0;0;0;0;0;0;0;0;0;0;0;0;0;0;0;0;0;0;0;0;0;0;0;0;0;260;780;975;455;-65;260;0;0;0;0;314.27;415.74;471.4;496.9;496.9;471.4;415.74;314.27;0;0;0;0;0;0;0;0;0;0;0;0;0;0;0;0;0;0;0;0;0;0;0;0;0;0;0;0;180;700;1055;535;15;180;0;0;0;0;314.27;415.74;471.4;496.9;496.9;471.4;415.74;314.27;0;0;0;0;0;0;0;0;0;0;0;0;0;0;0;0;0;0;0;0;0;0;0;0;0;0;0;0;100;620;1135;615;95;100;0;0;0;0;314.27;415.74;471.4;496.9;496.9;471.4;415.74;314.27;0;0;0;0;0;0;0;0;0;0;0;0;0;0;0;0;0;0;0;0;0;0;0;0;0;0;0;0;20;540;1060;695;175;20;0;0;0;0;314.27;415.74;471.4;496.9;496.9;471.4;415.74;314.27;0;0;0;0;0;0;0;0;0;0;0;0;0;0;0;0;0;0;0;0;0;0;0;0;0;0;0;0;0;460;980;775;255;-60;0;0;0;0;314.27;415.74;471.4;496.9;496.9;471.4;415.74;314.27;0;0;0;0;0;0;0;0;0;0;0;0;0;0;0;0;0;0;0;0;0;0;0;0;0;0;0;0;0;380;900;855;335;-140;0;0;0;0;314.27;415.74;471.4;496.9;496.9;471.4;415.74;314.27;0;0;0;0;0;0;0;0;0;0;0;0;0;0;0;0;0;0;0;0;0;0;0;0;0;0;0;0;0;300;820;935;415;-105;300;0;0;0;314.27;415.74;471.4;496.9;496.9;471.4;415.74;314.27;0;0;0;0;0;0;0;0;0;0;0;0;0;0;0;0;0;0;0;0;0;0;0;0;0;0;0;0;0;220;740;1015;495;-25;220;0;0;0;0;314.27;415.74;471.4;496.9;496.9;471.4;415.74;314.27;0;0;0;0;0;0;0;0;0;0;0;0;0;0;0;0;0;0;0;0;0;0;0;0;0;0;0;0;140;660;1095;575;55;140;0;0;0;0;314.27;415.74;471.4;496.9;496.9;471.4;415.74;314.27;0;0;0;0;0;0;0;0;0;0;0;0;0;0;0;0;0;0;0;0;0;0;0;0;0;0;0;0;60;580;1100;655;135;60;0;0;0;0;314.27;415.74;471.4;496.9;496.9;471.4;415.74;314.27;0;0;0;0;0;0;0;0;0;0;0;0;0;0;0;0;0;0;0;0;0;0;0;0;0;0;0;0;0;500;1020;735;215;-20;0;0;0;0;314.27;415.74;471.4;496.9;496.9;471.4;415.74;314.27;0;0;0;0;0;0;0;0;0;0;0;0;0;0;0;0;0;0;0;0;0;0;0;0;0;0;0;0;0;420;940;815;295;-100;0;0;0;0;314.27;415.74;471.4;496.9;496.9;471.4;415.74;314.27;0;0;0;0;0;0;0;0;0;0;0;0;0;0;0;0;0;0;0;0;0;0;0;0;0;0;0;0;0;340;860;895;375;-145;340;0;0;0;314.27;415.74;471.4;496.9;496.9;471.4;415.74;314.27;0;0;0;0;0;0;0;0;0;0;0;0;0;0;0;0;0;0;0;0;0;0;0;0;0;0;0;0;0;260;780;975;455;-65;260;0;0;0;0;314.27;415.74;471.4;496.9;496.9;471.4;415.74;314.27;0;0;0;0;0;0;0;0;0;0;0;0;0;0;0;0;0;0;0;0;0;0;0;0;0;0;0;0;180;700;1055;535;15;180;0;0;0;0;314.27;415.74;471.4;496.9;496.9;471.4;415.74;314.27;0;0;0;0;0;0;0;0;0;0;0;0;0;0;0;0;0;0;0;0;0;0;0;0;0;0;0;0;100;620;1135;615;95;100;0;0;0;0;314.27;415.74;471.4;496.9;496.9;471.4;415.74;314.27;0;0;0;0;0;0;0;0;0;0;0;0;0;0;0;0;0;0;0;0;0;0;0;0;0;0;0;0;20;540;1060;695;175;20;0;0;0;0;314.27;415.74;471.4;496.9;496.9;471.4;415.74;314.27;0;0;0;0;0;0;0;0;0;0;0;0;0;0;0;0;0;0;0;0;0;0;0;0;0;0;0;0;0;460;980;775;255;-60;0;0;0;0;314.27;415.74;471.4;496.9;496.9;471.4;415.74;314.27;0;0;0;0;0;0;0;0;0;0;0;0;0;0;0;0;0;0;0;0;0;0;0;0;0;0;0;0;0;380;900;855;335;-140;0;0;0;0;314.27;415.74;471.4;496.9;496.9;471.4;415.74;314.27;0;0;0;0;0;0;0;0;0;0;0;0;0;0;0;0;0;0;0;0;0;0;0;0;0;0;0;0;0;300;820;935;415;-105;300;0;0;0;314.27;415.74;471.4;496.9;496.9;471.4;415.74;314.27;0;0;0;0;0;0;0;0;0;0;0;0;0;0;0;0;0;0;0;0;0;0;0;0;0;0;0;0;0;220;740;1015;495;-25;220;0;0;0;0;314.27;415.74;471.4;496.9;496.9;471.4;415.74;314.27;0;0;0;0;0;0;0;0;0;0;0;0;0;0;0;0;0;0;0;0;0;0;0;0;0;0;0;0;140;660;1095;575;55;140;0;0;0;0;314.27;415.74;471.4;496.9;496.9;471.4;415.74;314.27;0;0;0;0;0;0;0;0;0;0;0;0;0;0;0;0;0;0;0;0;0;0;0;0;0;0;0;0;60;580;1100;655;135;60;0;0;0;0;314.27;415.74;471.4;496.9;496.9;471.4;415.74;314.27;0;0;0;0;0;0;0;0;0;0;0;0;0;0;0;0;0;0;0;0;0;0;0;0;0;0;0;0;0;500;1020;735;215;-20;0;0;0;0;314.27;415.74;471.4;496.9;496.9;471.4;415.74;314.27;0;0;0;0;0;0;0;0;0;0;0;0;0;0;0;0;0;0;0;0;0;0;0;0;0;0;0;0;0;420;940;815;295;-100;0;0;0;0;314.27;415.74;471.4;496.9;496.9;471.4;415.74;314.27;0;0;0;0;0;0;0;0;0;0;0;0;0;0;0;0;0;0;0;0;0;0;0;0;0;0;0;0;0;340;860;895;375;-145;340;0;0;0;314.27;415.74;471.4;496.9;496.9;471.4;415.74;314.27;0;0;0;0;0;0;0;0;0;0;0;0;0;0;0;0;0;0;0;0;0;0;0;0;0;0;0;0;0;260;780;975;455;-65;260;0;0;0;0;314.27;415.74;471.4;496.9;496.9;471.4;415.74;314.27;0;0;0;0;0;0;0;0;0;0;0;0;0;0;0;0;0;0;0;0;0;0;0;0;0;0;0;0;180;700;1055;535;15;180;0;0;0;0;314.27;415.74;471.4;496.9;496.9;471.4;415.74;314.27;0;0;0;0;0;0;0;0;0;0;0;0;0;0;0;0;0;0;0;0;0;0;0;0;0;0;0;0;100;620;1135;615;95;100;0;0;0;0;314.27;415.74;471.4;496.9;496.9;471.4;415.74;314.27;0;0;0;0;0;0;0;0;0;0;0;0;0;0;0;0;0;0;0;0;0;0;0;0;0;0;0;0;20;540;1060;695;175;20;0;0;0;0;314.27;415.74;471.4;496.9;496.9;471.4;415.74;314.27;0;0;0;0;0;0;0;0;0;0;0;0;0;0;0;0;0;0;0;0;0;0;0;0;0;0;0;0;0;460;980;775;255;-60;0;0;0;0;314.27;415.74;471.4;496.9;496.9;471.4;415.74;314.27;0;0;0;0;0;0;0;0;0;0;0;0;0;0;0;0;0;0;0;0;0;0;0;0;0;0;0;0;0;380;900;855;335;-140;0;0;0;0;314.27;415.74;471.4;496.9;496.9;471.4;415.74;314.27;0;0;0;0;0;0;0;0;0;0;0;0;0;0;0;0;0;0;0;0;0;0;0;0;0;0;0;0;0;300;820;935;415;-105;300;0;0;0;314.27;415.74;471.4;496.9;496.9;471.4;415.74;314.27;0;0;0;0;0;0;0;0;0;0;0;0;0;0;0;0;0;0;0;0;0;0;0;0;0;0;0;0;0;220;740;1015;495;-25;220;0;0;0;0;314.27;415.74;471.4;496.9;496.9;471.4;415.74;314.27;0;0;0;0;0;0;0;0;0;0;0;0;0;0;0;0;0;0;0;0;0;0;0;0;0;0;0;0;140;660;1095;575;55;140;0;0;0;0;314.27;415.74;471.4;496.9;496.9;471.4;415.74;314.27;0;0;0;0;0;0;0;0;0;0;0;0;0;0;0;0;0;0;0;0;0;0;0;0;0;0;0;0;60;580;1100;655;135;60;0;0;0;0;314.27;415.74;471.4;496.9;496.9;471.4;415.74;314.27;0;0;0;0;0;0;0;0;0;0;0;0;0;0;0;0;0;0;0;0;0;0;0;0;0;0;0;0;0;500;1020;735;215;-20;0;0;0;0;314.27;415.74;471.4;496.9;496.9;471.4;415.74;314.27;0;0;0;0;0;0;0;0;0;0;0;0;0;0;0;0;0;0;0;0;0;0;0;0;0;0;0;0;0;420;940;815;295;-100;0;0;0;0;314.27;415.74;471.4;496.9;496.9;471.4;415.74;314.27;0;0;0;0;0;0;0;0;0;0;0;0;0;0;0;0;0;0;0;0;0;0;0;0;0;0;0;0;0;340;860;895;375;-145;340;0;0;0;314.27;415.74;471.4;496.9;496.9;471.4;415.74;314.27;0;0;0;0;0;0;0;0;0;0;0;0;0;0;0;0;0;0;0;0;0;0;0;0;0;0;0;0;0;260;780;975;455;-65;260;0;0;0;0;314.27;415.74;471.4;496.9;496.9;471.4;415.74;314.27;0;0;0;0;0;0;0;0;0;0;0;0;0;0;0;0;0;0;0;0;0;0;0;0;0;0;0;0;180;700;1055;535;15;180;0;0;0;0;314.27;415.74;471.4;496.9;496.9;471.4;415.74;314.27;0;0;0;0;0;0;0;0;0;0;0;0;0;0;0;0;0;0;0;0;0;0;0;0;0;0;0;0;100;620;1135;615;95;100;0;0;0;0;314.27;415.74;471.4;496.9;496.9;471.4;415.74;314.27;0;0;0;0;0;0;0;0;0;0;0;0;0;0;0;0;0;0;0;0;0;0;0;0;0;0;0;0;20;540;1060;695;175;20;0;0;0;0;314.27;415.74;471.4;496.9;496.9;471.4;415.74;314.27;0;0;0;0;0;0;0;0;0;0;0;0;0;0;0;0;0;0;0;0;0;0;0;0;0;0;0;0;0;460;980;775;255;-60;0;0;0;0;314.27;415.74;471.4;496.9;496.9;471.4;415.74;314.27;0;0;0;0;0;0;0;0;0;0;0;0;0;0;0;0;0;0;0;0;0;0;0;0;0;0;0;0;0;380;900;855;335;-140;0;0;0;0;314.27;415.74;471.4;496.9;496.9;471.4;415.74;314.27;0
Esta medida es demasiado corta y no se puede diagnosticar